t,lead_I
1999.4,-9600.670077247618
2001.4,-12005.551882273809
2003.4,-14425.86225872857
2005.4,-16841.458349469045
2007.4,-16821.45834946905
2009.4,-16801.744063754762
2011.4,-16820.029778040476
2013.4,-16859.31549232619
2015.4,-16866.17263518333
2017.4,-16826.744063754762
2019.4,-16786.315492326194
2021.4,-16785.744063754762
2023.4,-16811.31549232619
2025.4,-16818.172635183335
2027.4,-16787.601206611907
2029.4,-16747.601206611904
2031.38,-16735.744063754762
2033.35,-16753.601206611907
2035.33,-16768.744063754762
2037.3,-16756.172635183335
2039.3,-16724.31549232619
2041.3,-16700.31549232619
2043.3,-16695.744063754762
2045.3,-16693.45834946905
2047.3,-16667.029778040476
2049.3,-16612.029778040476
2051.3,-16550.458349469052
2053.3,-16507.172635183335
2055.3,-16487.172635183335
2057.3,-16472.172635183335
2059.3,-16438.88692089762
2061.3,-16392.029778040476
2063.3,-16367.886920897621
2065.3,-16386.172635183335
2067.3,-16414.31549232619
2069.3,-16406.744063754762
2071.3,-16369.458349469049
2073.3,-16352.172635183331
2075.3,-16377.31549232619
2077.3,-16406.31549232619
2079.3,-16391.886920897618
2081.3,-16346.744063754764
2083.3,-16329.458349469047
2085.3,-16363.029778040476
2087.3,-16404.029778040476
2089.3,-16406.029778040476
2091.3,-16379.172635183335
2093.3,-16363.744063754762
2095.3,-16371.315492326192
2097.3,-16382.172635183335
2099.3,-16379.172635183335
2101.3,-16365.315492326192
2103.3,-16359.315492326192
2105.3,-16380.601206611906
2107.3,-16428.31549232619
2109.3,-16476.029778040476
2111.28,-16496.601206611907
2113.25,-16492.029778040476
2115.23,-16491.45834946905
2117.2,-16517.172635183335
2119.2,-16557.88692089762
2121.2,-16582.601206611907
2123.2,-16582.458349469052
2125.2,-16586.744063754762
2127.2,-16629.31549232619
2129.2,-16701.45834946905
2131.2,-16754.45834946905
2133.2,-16758.886920897618
2135.2,-16745.172635183335
2137.2,-16767.31549232619
2139.2,-16834.31549232619
2141.2,-16899.31549232619
2143.2,-16918.458349469045
2145.2,-16908.744063754762
2147.2,-16927.601206611907
2149.2,-16990.601206611907
2151.2,-17042.315492326194
2153.2,-17039.45834946905
2155.2,-17013.45834946905
2157.2,-17010.458349469045
2159.2,-17022.886920897618
2161.2,-17027.601206611904
2163.2,-17034.029778040476
2165.2,-17055.029778040476
2167.2,-17078.315492326194
2169.2,-17099.31549232619
2171.2,-17138.029778040476
2173.2,-17198.45834946905
2175.2,-17246.172635183335
2177.2,-17254.601206611907
2179.2,-17245.172635183335
2181.2,-17253.172635183335
2183.2,-17279.45834946905
2185.2,-17303.601206611907
2187.2,-17312.744063754762
2189.2,-17302.601206611907
2191.18,-17285.601206611907
2193.15,-17292.45834946905
2195.13,-17324.45834946905
2197.1,-17335.88692089762
2199.1,-17308.029778040476
2201.1,-17291.172635183335
2203.1,-17327.601206611904
2205.1,-17382.601206611907
2207.1,-17398.02977804048
2209.1,-17373.45834946905
2211.1,-17354.88692089762
2213.1,-17366.45834946905
2215.1,-17388.02977804048
2217.1,-17393.02977804048
2219.1,-17383.315492326194
2221.1,-17381.029778040476
2223.1,-17402.31549232619
2225.1,-17443.172635183335
2227.1,-17482.31549232619
2229.1,-17497.744063754762
2231.1,-17488.886920897618
2233.1,-17481.601206611907
2235.1,-17497.601206611904
2237.1,-17526.45834946905
2239.1,-17537.88692089762
2241.1,-17521.88692089762
2243.1,-17504.744063754762
2245.1,-17520.02977804048
2247.1,-17565.172635183335
2249.1,-17600.45834946905
2251.1,-17595.172635183335
2253.1,-17567.31549232619
2255.1,-17556.744063754762
2257.1,-17568.31549232619
2259.1,-17565.744063754762
2261.1,-17526.744063754762
2263.1,-17480.029778040476
2265.1,-17471.458349469045
2267.1,-17509.601206611904
2269.1,-17559.31549232619
2271.08,-17583.886920897618
2273.05,-17583.31549232619
2275.03,-17589.31549232619
2277.0,-17620.029778040476
2279.0,-17653.172635183335
2281.0,-17654.172635183335
2283.0,-17626.31549232619
2285.0,-17610.172635183335
2287.0,-17632.45834946905
2289.0,-17674.886920897618
2291.0,-17702.172635183335
2293.0,-17704.172635183335
2295.0,-17701.601206611904
2297.0,-17717.029778040476
2299.0,-17749.744063754762
2301.0,-17778.31549232619
2303.0,-17783.02977804048
2305.0,-17768.601206611907
2307.0,-17768.31549232619
2309.0,-17808.029778040476
2311.0,-17863.88692089762
2313.0,-17883.029778040476
2315.0,-17854.744063754762
2317.0,-17829.31549232619
2319.0,-17853.172635183335
2321.0,-17904.31549232619
2323.0,-17919.601206611904
2325.0,-17881.88692089762
2327.0,-17850.315492326194
2329.0,-17880.172635183335
2331.0,-17942.45834946905
2333.0,-17967.601206611907
2335.0,-17945.88692089762
2337.0,-17928.744063754762
2339.0,-17945.31549232619
2341.0,-17970.029778040476
2343.0,-17968.458349469045
2345.0,-17937.45834946905
2347.0,-17899.172635183335
2349.0,-17876.315492326194
2350.98,-17874.172635183335
2352.95,-17877.029778040476
2354.93,-17863.31549232619
2356.9,-17830.172635183335
2358.9,-17800.31549232619
2360.9,-17794.601206611907
2362.9,-17801.886920897618
2364.9,-17788.601206611907
2366.9,-17743.31549232619
2368.9,-17695.88692089762
2370.9,-17680.172635183335
2372.9,-17690.172635183335
2374.9,-17691.31549232619
2376.9,-17671.172635183335
2378.9,-17663.45834946905
2380.9,-17711.029778040476
2382.9,-17807.601206611904
2384.9,-17893.886920897618
2386.9,-17926.601206611904
2388.9,-17933.601206611904
2390.9,-17969.744063754762
2392.9,-18030.744063754762
2394.9,-18055.31549232619
2396.9,-18017.31549232619
2398.9,-17971.029778040476
2400.9,-17982.744063754762
2402.9,-18048.601206611907
2404.9,-18107.886920897618
2406.9,-18124.029778040476
2408.9,-18122.172635183335
2410.9,-18143.315492326194
2412.9,-18187.601206611907
2414.9,-18219.886920897618
2416.9,-18217.029778040476
2418.9,-18191.744063754762
2420.9,-18174.744063754762
2422.9,-18186.88692089762
2424.9,-18221.744063754762
2426.9,-18250.601206611904
2428.9,-18253.88692089762
2430.88,-18245.17263518333
2432.85,-18256.458349469045
2434.83,-18302.744063754762
2436.8,-18365.458349469045
2438.8,-18413.744063754762
2440.8,-18444.172635183335
2442.8,-18486.744063754762
2444.8,-18557.45834946905
2446.8,-18621.02977804048
2448.8,-18623.029778040476
2450.8,-18546.88692089762
2452.8,-18417.88692089762
2454.8,-18254.601206611907
2456.8,-18033.45834946905
2458.8,-17709.744063754762
2460.8,-17281.172635183335
2462.8,-16819.029778040476
2464.8,-16410.029778040476
2466.8,-16075.601206611906
2468.8,-15791.886920897621
2470.8,-15584.744063754762
2472.8,-15544.458349469047
2474.8,-15724.315492326192
2476.8,-16074.458349469049
2478.8,-16505.029778040476
2480.8,-16973.31549232619
2482.8,-17470.744063754762
2484.8,-17957.744063754762
2486.8,-18362.886920897618
2488.8,-18636.601206611904
2490.8,-18772.886920897618
2492.8,-18793.744063754762
2494.8,-18741.45834946905
2496.8,-18665.744063754762
2498.8,-18588.45834946905
2500.8,-18496.886920897618
2502.8,-18391.029778040476
2504.8,-18310.601206611907
2506.8,-18290.601206611907
2508.8,-18312.172635183335
2510.78,-18324.45834946905
2512.75,-18305.744063754762
2514.73,-18285.886920897618
2516.7,-18304.88692089762
2518.7,-18355.45834946905
2520.7,-18384.45834946905
2522.7,-18361.744063754762
2524.7,-18326.45834946905
2526.7,-18337.31549232619
2528.7,-18389.31549232619
2530.7,-18418.172635183335
2532.7,-18390.172635183335
2534.7,-18347.172635183335
2536.7,-18345.029778040476
2538.7,-18378.029778040476
2540.7,-18395.88692089762
2542.7,-18377.029778040476
2544.7,-18352.31549232619
2546.7,-18359.601206611904
2548.7,-18398.886920897618
2550.7,-18436.886920897618
2552.7,-18444.31549232619
2554.7,-18424.88692089762
2556.7,-18406.45834946905
2558.7,-18404.172635183335
2560.7,-18402.601206611907
2562.7,-18381.02977804048
2564.7,-18343.45834946905
2566.7,-18315.029778040476
2568.7,-18314.45834946905
2570.7,-18337.601206611904
2572.7,-18362.886920897618
2574.7,-18369.029778040476
2576.7,-18354.315492326194
2578.7,-18340.029778040476
2580.7,-18343.45834946905
2582.7,-18346.172635183335
2584.7,-18312.744063754762
2586.7,-18247.029778040476
2588.7,-18199.029778040476
2590.68,-18199.172635183335
2592.65,-18214.744063754762
2594.63,-18198.45834946905
2596.6,-18154.601206611907
2598.6,-18128.029778040476
2600.6,-18141.029778040476
2602.6,-18168.744063754762
2604.6,-18173.88692089762
2606.6,-18148.88692089762
2608.6,-18119.31549232619
2610.6,-18113.458349469052
2612.6,-18130.172635183335
2614.6,-18140.744063754762
2616.6,-18123.31549232619
2618.6,-18091.029778040476
2620.6,-18076.886920897618
2622.6,-18093.029778040476
2624.6,-18115.31549232619
2626.6,-18114.458349469045
2628.6,-18089.029778040476
2630.6,-18064.601206611907
2632.6,-18063.744063754762
2634.6,-18079.886920897618
2636.6,-18080.172635183335
2638.6,-18045.172635183335
2640.6,-18000.458349469045
2642.6,-17989.88692089762
2644.6,-18018.172635183335
2646.6,-18040.886920897618
2648.6,-18016.88692089762
2650.6,-17961.45834946905
2652.6,-17930.88692089762
2654.6,-17943.45834946905
2656.6,-17948.029778040476
2658.6,-17904.744063754762
2660.6,-17854.45834946905
2662.6,-17850.31549232619
2664.6,-17873.45834946905
2666.6,-17875.601206611907
2668.6,-17853.029778040476
2670.58,-17827.02977804048
2672.55,-17800.601206611904
2674.53,-17769.029778040476
2676.5,-17740.31549232619
2678.5,-17722.31549232619
2680.5,-17710.601206611907
2682.5,-17699.744063754762
2684.5,-17694.45834946905
2686.5,-17699.45834946905
2688.5,-17709.31549232619
2690.5,-17716.601206611904
2692.5,-17712.744063754762
2694.5,-17684.31549232619
2696.5,-17637.31549232619
2698.5,-17608.744063754762
2700.5,-17613.744063754762
2702.5,-17612.31549232619
2704.5,-17576.601206611907
2706.5,-17547.31549232619
2708.5,-17567.45834946905
2710.5,-17605.88692089762
2712.5,-17604.31549232619
2714.5,-17562.31549232619
2716.5,-17528.17263518333
2718.5,-17529.172635183335
2720.5,-17549.31549232619
2722.5,-17562.886920897618
2724.5,-17564.88692089762
2726.5,-17574.172635183335
2728.5,-17612.744063754762
2730.5,-17674.31549232619
2732.5,-17722.172635183335
2734.5,-17734.029778040476
2736.5,-17732.31549232619
2738.5,-17754.744063754762
2740.5,-17808.601206611907
2742.5,-17868.601206611907
2744.5,-17907.31549232619
2746.5,-17924.315492326194
2748.4,-17947.172635183335
2750.4,-17998.029778040476
2752.4,-18057.029778040476
2754.4,-18082.88692089762
2756.4,-18072.02977804048
2758.4,-18068.601206611907
2760.4,-18104.744063754762
2762.4,-18158.601206611904
2764.4,-18185.601206611904
2766.4,-18177.458349469045
2768.4,-18169.02977804048
2770.4,-18189.45834946905
2772.4,-18228.172635183335
2774.4,-18256.601206611907
2776.4,-18262.02977804048
2778.4,-18255.31549232619
2780.4,-18258.601206611907
2782.4,-18282.88692089762
2784.4,-18308.172635183335
2786.4,-18301.45834946905
2788.4,-18264.45834946905
2790.4,-18238.45834946905
2792.4,-18248.172635183335
2794.4,-18270.31549232619
2796.4,-18270.172635183335
2798.4,-18247.31549232619
2800.4,-18231.315492326194
2802.4,-18242.88692089762
2804.4,-18269.886920897618
2806.4,-18283.744063754762
2808.4,-18274.029778040476
2810.4,-18260.17263518333
2812.4,-18266.31549232619
2814.4,-18294.744063754762
2816.4,-18324.029778040476
2818.4,-18326.45834946905
2820.4,-18297.172635183335
2822.4,-18268.029778040476
2824.4,-18271.45834946905
2826.4,-18291.029778040476
2828.3,-18277.45834946905
2830.3,-18220.172635183335
2832.3,-18171.886920897618
2834.3,-18181.029778040476
2836.3,-18223.45834946905
2838.3,-18233.45834946905
2840.3,-18196.744063754762
2842.3,-18171.17263518333
2844.3,-18202.601206611904
2846.3,-18261.029778040476
2848.3,-18287.172635183335
2850.3,-18272.172635183335
2852.3,-18259.315492326194
2854.3,-18282.172635183335
2856.3,-18323.172635183335
2858.3,-18336.88692089762
2860.3,-18308.172635183335
2862.3,-18272.601206611907
2864.3,-18268.88692089762
2866.3,-18289.45834946905
2868.3,-18297.744063754762
2870.3,-18280.45834946905
2872.3,-18258.601206611904
2874.3,-18254.601206611904
2876.3,-18270.88692089762
2878.3,-18293.31549232619
2880.3,-18304.886920897618
2882.3,-18300.17263518333
2884.3,-18296.029778040476
2886.3,-18315.744063754762
2888.3,-18354.744063754762
2890.3,-18376.88692089762
2892.3,-18359.744063754762
2894.3,-18327.31549232619
2896.3,-18322.029778040476
2898.3,-18347.31549232619
2900.28,-18361.029778040473
2902.25,-18335.45834946905
2904.23,-18302.45834946905
2906.2,-18313.458349469045
2908.2,-18364.029778040476
2910.2,-18392.886920897618
2912.2,-18364.601206611907
2914.2,-18316.601206611907
2916.2,-18303.601206611907
2918.2,-18324.31549232619
2920.2,-18333.744063754762
2922.2,-18308.601206611904
2924.2,-18270.45834946905
2926.2,-18251.31549232619
2928.2,-18258.601206611904
2930.2,-18269.17263518333
2932.2,-18248.886920897618
2934.2,-18184.601206611907
2936.2,-18101.31549232619
2938.2,-18038.601206611904
2940.2,-18005.601206611904
2942.2,-17973.886920897618
2944.2,-17921.029778040476
2946.2,-17869.172635183335
2948.2,-17862.744063754762
2950.2,-17913.88692089762
2952.2,-17983.45834946905
2954.2,-18026.744063754762
2956.2,-18046.45834946905
2958.2,-18087.744063754762
2960.2,-18174.029778040476
2962.2,-18266.458349469045
2964.2,-18307.31549232619
2966.2,-18297.886920897618
2968.2,-18295.886920897618
2970.2,-18330.17263518333
2972.2,-18357.45834946905
2974.2,-18328.601206611904
2976.2,-18265.029778040476
2978.2,-18234.17263518333
2980.18,-18264.31549232619
2982.15,-18317.74406375476
2984.13,-18348.02977804048
2986.1,-18353.601206611904
2988.1,-18365.029778040476
2990.1,-18397.88692089762
2992.1,-18433.45834946905
2994.1,-18440.315492326194
2996.1,-18407.88692089762
2998.1,-18361.45834946905
3000.1,-18339.17263518333
3002.1,-18349.45834946905
3004.1,-18360.31549232619
3006.1,-18340.17263518333
3008.1,-18298.172635183335
3010.1,-18274.886920897618
3012.1,-18297.31549232619
3014.1,-18351.45834946905
3016.1,-18399.601206611904
3018.1,-18427.029778040476
3020.1,-18458.886920897618
3022.1,-18516.744063754762
3024.1,-18571.744063754762
3026.1,-18563.744063754762
3028.1,-18462.601206611904
3030.1,-18288.31549232619
3032.1,-18071.172635183335
3034.1,-17809.744063754762
3036.1,-17477.88692089762
3038.1,-17070.601206611904
3040.1,-16637.172635183335
3042.1,-16253.601206611904
3044.1,-15963.172635183335
3046.1,-15764.029778040476
3048.1,-15660.029778040478
3050.1,-15695.458349469049
3052.1,-15916.315492326194
3054.1,-16310.029778040478
3056.1,-16799.172635183335
3058.1,-17293.31549232619
3060.08,-17741.744063754762
3062.05,-18134.029778040476
3064.03,-18454.88692089762
3066.0,-18663.31549232619
3068.0,-18726.88692089762
3070.0,-18666.172635183335
3072.0,-18550.45834946905
3074.0,-18444.45834946905
3076.0,-18362.45834946905
3078.0,-18282.601206611904
3080.0,-18200.601206611904
3082.0,-18145.601206611904
3084.0,-18138.45834946905
3086.0,-18162.458349469045
3088.0,-18185.88692089762
3090.0,-18189.172635183335
3092.0,-18174.172635183335
3094.0,-18162.744063754762
3096.0,-18173.601206611907
3098.0,-18192.172635183335
3100.0,-18184.744063754762
3102.0,-18145.31549232619
3104.0,-18110.31549232619
3106.0,-18116.744063754762
3108.0,-18150.315492326194
3110.0,-18154.744063754762
3112.0,-18106.88692089762
3114.0,-18056.029778040476
3116.0,-18054.31549232619
3118.0,-18077.029778040476
3120.0,-18061.744063754762
3122.0,-18004.172635183335
3124.0,-17960.744063754762
3126.0,-17965.172635183335
3128.0,-17988.315492326194
3130.0,-17984.88692089762
3132.0,-17948.88692089762
3134.0,-17908.744063754762
3136.0,-17885.601206611907
3138.0,-17875.315492326194
3139.98,-17865.31549232619
3141.95,-17850.45834946905
3143.93,-17832.88692089762
3145.9,-17820.31549232619
3147.9,-17826.172635183335
3149.9,-17853.172635183335
3151.9,-17872.172635183335
3153.9,-17845.029778040476
3155.9,-17784.315492326194
3157.9,-17752.31549232619
3159.9,-17774.31549232619
3161.9,-17795.88692089762
3163.9,-17770.31549232619
3165.9,-17731.172635183335
3167.9,-17730.45834946905
3169.9,-17754.886920897618
3171.9,-17757.601206611907
3173.9,-17729.45834946905
3175.9,-17696.029778040476
3177.9,-17672.172635183335
3179.9,-17658.172635183335
3181.9,-17655.744063754762
3183.9,-17661.601206611904
3185.9,-17662.029778040476
3187.9,-17655.88692089762
3189.9,-17657.172635183335
3191.9,-17663.315492326194
3193.9,-17656.886920897618
3195.9,-17640.601206611907
3197.9,-17625.601206611904
3199.9,-17600.172635183335
3201.9,-17561.88692089762
3203.9,-17542.601206611904
3205.9,-17550.31549232619
3207.9,-17536.601206611907
3209.9,-17473.601206611907
3211.9,-17407.31549232619
3213.9,-17388.744063754762
3215.9,-17393.886920897618
3217.9,-17364.744063754762
3219.88,-17300.886920897618
3221.85,-17261.31549232619
3223.83,-17275.88692089762
3225.8,-17302.744063754762
3227.8,-17289.172635183335
3229.8,-17239.744063754762
3231.8,-17195.172635183335
3233.8,-17168.31549232619
3235.8,-17133.886920897618
3237.8,-17070.886920897618
3239.8,-16989.45834946905
3241.8,-16916.172635183335
3243.8,-16870.315492326194
3245.8,-16853.029778040476
3247.8,-16847.02977804048
3249.8,-16829.31549232619
3251.8,-16797.601206611907
3253.8,-16776.172635183335
3255.8,-16780.31549232619
3257.8,-16787.45834946905
3259.8,-16767.744063754762
3261.8,-16730.886920897618
3263.8,-16713.601206611904
3265.8,-16727.31549232619
3267.8,-16746.45834946905
3269.8,-16743.886920897618
3271.8,-16714.88692089762
3273.8,-16672.17263518333
3275.8,-16639.886920897618
3277.8,-16634.601206611904
3279.8,-16640.172635183335
3281.8,-16623.744063754762
3283.8,-16589.029778040476
3285.8,-16581.029778040476
3287.8,-16618.744063754762
3289.8,-16657.17263518333
3291.8,-16647.886920897618
3293.8,-16609.601206611904
3295.8,-16599.601206611907
3297.8,-16634.744063754762
3299.78,-16679.172635183335
3301.75,-16702.88692089762
3303.73,-16715.45834946905
3305.7,-16741.45834946905
3307.7,-16786.45834946905
3309.7,-16833.17263518333
3311.7,-16859.601206611907
3313.7,-16857.601206611904
3315.7,-16841.601206611904
3317.7,-16838.744063754762
3319.7,-16863.88692089762
3321.7,-16898.601206611907
3323.7,-16909.744063754762
3325.7,-16896.744063754762
3327.7,-16901.601206611907
3329.7,-16952.02977804048
3331.7,-17016.744063754762
3333.7,-17044.88692089762
3335.7,-17039.601206611907
3337.7,-17056.029778040476
3339.7,-17119.172635183335
3341.7,-17180.601206611904
3343.7,-17181.17263518333
3345.7,-17129.029778040476
3347.7,-17083.45834946905
3349.7,-17078.029778040476
3351.7,-17091.172635183335
3353.7,-17084.45834946905
3355.7,-17049.601206611904
3357.7,-17017.31549232619
3359.7,-17024.029778040476
3361.7,-17063.601206611904
3363.7,-17084.029778040476
3365.7,-17052.31549232619
3367.7,-17002.744063754762
3369.7,-16988.172635183335
3371.7,-17004.029778040476
3373.7,-17001.172635183335
3375.7,-16961.45834946905
3377.7,-16922.02977804048
3379.68,-16919.029778040476
3381.65,-16942.601206611907
3383.63,-16958.601206611907
3385.6,-16953.31549232619
3387.6,-16937.88692089762
3389.6,-16927.029778040476
3391.6,-16930.029778040476
3393.6,-16946.172635183335
3395.6,-16953.029778040476
3397.6,-16927.17263518333
3399.6,-16889.744063754762
3401.6,-16892.029778040476
3403.6,-16937.601206611904
3405.6,-16964.45834946905
3407.6,-16928.31549232619
3409.6,-16867.02977804048
3411.6,-16850.172635183335
3413.6,-16885.45834946905
3415.6,-16911.886920897618
3417.6,-16887.744063754762
3419.6,-16848.315492326194
3421.6,-16852.744063754762
3423.6,-16896.31549232619
3425.6,-16919.029778040476
3427.6,-16887.744063754762
3429.6,-16831.02977804048
3431.6,-16793.744063754762
3433.6,-16788.31549232619
3435.6,-16791.31549232619
3437.6,-16774.31549232619
3439.6,-16736.45834946905
3441.6,-16708.02977804048
3443.6,-16713.601206611904
3445.6,-16739.45834946905
3447.6,-16747.45834946905
3449.6,-16719.31549232619
3451.6,-16680.88692089762
3453.6,-16674.601206611904
3455.6,-16706.029778040476
3457.5,-16730.88692089762
3459.5,-16709.88692089762
3461.5,-16661.886920897618
3463.5,-16639.315492326194
3465.5,-16658.744063754762
3467.5,-16679.601206611907
3469.5,-16655.172635183335
3471.5,-16593.744063754762
3473.5,-16551.601206611904
3475.5,-16560.17263518333
3477.5,-16581.886920897618
3479.5,-16558.744063754762
3481.5,-16487.886920897618
3483.5,-16421.601206611904
3485.5,-16398.458349469045
3487.5,-16400.744063754762
3489.5,-16382.458349469049
3491.5,-16326.88692089762
3493.5,-16267.172635183335
3495.5,-16246.029778040476
3497.5,-16260.88692089762
3499.5,-16268.31549232619
3501.5,-16246.172635183335
3503.5,-16228.029778040478
3505.5,-16260.172635183335
3507.5,-16340.172635183335
3509.5,-16418.029778040476
3511.5,-16455.601206611907
3513.5,-16464.601206611904
3515.5,-16479.17263518333
3517.5,-16506.02977804048
3519.5,-16519.31549232619
3521.5,-16495.88692089762
3523.5,-16445.601206611907
3525.5,-16406.172635183335
3527.5,-16410.31549232619
3529.48,-16446.45834946905
3531.45,-16463.601206611907
3533.43,-16432.31549232619
3535.4,-16390.88692089762
3537.4,-16393.315492326194
3539.4,-16429.601206611907
3541.4,-16439.886920897618
3543.4,-16401.886920897618
3545.4,-16356.744063754762
3547.4,-16348.029778040476
3549.4,-16367.458349469049
3551.4,-16370.88692089762
3553.4,-16332.88692089762
3555.4,-16278.172635183333
3557.4,-16251.744063754762
3559.4,-16262.88692089762
3561.4,-16275.31549232619
3563.4,-16257.458349469049
3565.4,-16223.74406375476
3567.4,-16214.172635183333
3569.4,-16243.31549232619
3571.4,-16283.601206611906
3573.4,-16298.88692089762
3575.4,-16286.886920897618
3577.4,-16273.458349469047
3579.4,-16264.315492326192
3581.4,-16220.601206611906
3583.4,-16090.601206611906
3585.4,-15853.88692089762
3587.4,-15529.88692089762
3589.4,-15154.74406375476
3591.4,-14753.74406375476
3593.4,-14339.601206611904
3595.4,-13939.744063754762
3597.4,-13618.172635183335
3599.4,-13450.601206611907
3601.4,-13475.886920897621
3603.4,-13675.315492326192
3605.4,-14002.886920897621
3607.4,-14427.601206611907
3609.38,-14932.88692089762
3611.35,-15466.458349469049
3613.33,-15927.315492326188
3615.3,-16233.886920897618
3617.3,-16386.74406375476
3619.3,-16437.31549232619
3621.3,-16418.886920897618
3623.3,-16334.601206611906
3625.3,-16194.458349469047
3627.3,-16037.31549232619
3629.3,-15913.601206611904
3631.3,-15845.74406375476
3633.3,-15809.172635183333
3635.3,-15764.601206611907
3637.3,-15705.029778040476
3639.3,-15658.172635183333
3641.3,-15648.31549232619
3643.3,-15665.601206611906
3645.3,-15672.88692089762
3647.3,-15644.029778040476
3649.3,-15592.88692089762
3651.3,-15553.31549232619
3653.3,-15534.029778040476
3655.3,-15510.88692089762
3657.3,-15461.029778040476
3659.3,-15391.88692089762
3661.3,-15337.88692089762
3663.3,-15331.744063754762
3665.3,-15367.88692089762
3667.3,-15396.029778040476
3669.3,-15374.029778040476
3671.3,-15328.029778040476
3673.3,-15321.31549232619
3675.3,-15357.31549232619
3677.3,-15366.744063754762
3679.3,-15315.315492326194
3681.3,-15258.315492326192
3683.3,-15246.601206611907
3685.3,-15252.45834946905
3687.3,-15233.172635183333
3689.28,-15195.315492326192
3691.25,-15157.88692089762
3693.23,-15120.029778040478
3695.2,-15089.31549232619
3697.2,-15083.029778040476
3699.2,-15088.029778040478
3701.2,-15069.601206611907
3703.2,-15027.886920897621
3705.2,-14998.31549232619
3707.2,-14991.172635183335
3709.2,-14979.886920897621
3711.2,-14954.029778040476
3713.2,-14930.744063754762
3715.2,-14913.458349469049
3717.2,-14893.172635183335
3719.2,-14881.172635183335
3721.2,-14884.029778040476
3723.2,-14869.172635183333
3725.2,-14815.172635183335
3727.2,-14763.31549232619
3729.2,-14758.744063754764
3731.2,-14775.744063754762
3733.2,-14757.029778040478
3735.2,-14698.172635183335
3737.2,-14646.886920897621
3739.2,-14634.172635183337
3741.2,-14636.601206611907
3743.2,-14612.744063754764
3745.2,-14558.315492326194
3747.2,-14508.744063754764
3749.2,-14487.886920897621
3751.2,-14478.31549232619
3753.2,-14449.886920897621
3755.2,-14396.029778040476
3757.2,-14331.315492326192
3759.2,-14274.029778040476
3761.2,-14233.458349469047
3763.2,-14199.744063754762
3765.2,-14150.172635183335
3767.2,-14079.744063754764
3769.18,-14014.172635183335
3771.15,-13977.601206611907
3773.13,-13960.315492326194
3775.1,-13933.172635183335
3777.1,-13885.029778040478
3779.1,-13832.029778040478
3781.1,-13793.172635183335
3783.1,-13767.172635183335
3785.1,-13734.172635183335
3787.1,-13677.172635183335
3789.1,-13604.458349469049
3791.1,-13547.029778040476
3793.1,-13521.744063754762
3795.1,-13502.88692089762
3797.1,-13454.886920897621
3799.1,-13390.029778040478
3801.1,-13357.029778040478
3803.1,-13366.744063754762
3805.1,-13370.744063754762
3807.1,-13328.601206611904
3809.1,-13261.172635183335
3811.1,-13217.458349469049
3813.1,-13211.744063754762
3815.1,-13211.88692089762
3817.1,-13183.88692089762
3819.1,-13131.886920897621
3821.1,-13092.458349469047
3823.1,-13090.172635183333
3825.1,-13108.88692089762
3827.1,-13109.172635183333
3829.1,-13072.172635183333
3831.1,-13019.744063754762
3833.1,-12991.458349469047
3835.1,-12997.601206611904
3837.1,-13006.31549232619
3839.1,-12985.458349469049
3841.1,-12944.315492326192
3843.1,-12919.315492326192
3845.1,-12927.458349469047
3847.1,-12949.458349469047
3849.08,-12957.458349469047
3851.05,-12946.601206611906
3853.03,-12939.88692089762
3855.0,-12965.458349469049
3857.0,-13019.744063754762
3859.0,-13064.744063754762
3861.0,-13077.601206611904
3863.0,-13087.172635183335
3865.0,-13131.601206611907
3867.0,-13191.744063754762
3869.0,-13208.029778040478
3871.0,-13163.601206611906
3873.0,-13109.172635183335
3875.0,-13095.601206611907
3877.0,-13110.88692089762
3879.0,-13108.744063754762
3881.0,-13080.172635183335
3883.0,-13064.886920897621
3885.0,-13094.172635183335
3887.0,-13150.601206611904
3889.0,-13187.601206611904
3891.0,-13177.315492326192
3893.0,-13135.172635183335
3895.0,-13104.88692089762
3897.0,-13108.88692089762
3899.0,-13118.315492326194
3901.0,-13093.029778040478
3903.0,-13043.458349469049
3905.0,-13020.029778040476
3907.0,-13046.172635183335
3909.0,-13088.744063754762
3911.0,-13100.886920897621
3913.0,-13073.886920897621
3915.0,-13040.172635183335
3917.0,-13030.886920897621
3919.0,-13042.744063754762
3921.0,-13045.029778040478
3923.0,-13014.886920897621
3925.0,-12965.458349469049
3927.0,-12940.458349469049
3928.98,-12962.458349469049
3930.95,-12992.029778040476
3932.93,-12969.744063754762
3934.9,-12902.88692089762
3936.9,-12860.886920897621
3938.9,-12874.172635183335
3940.9,-12892.458349469049
3942.9,-12864.029778040478
3944.9,-12806.88692089762
3946.9,-12774.458349469049
3948.9,-12782.172635183335
3950.9,-12794.315492326192
3952.9,-12773.315492326192
3954.9,-12725.029778040478
3956.9,-12691.172635183335
3958.9,-12699.744063754762
3960.9,-12731.315492326192
3962.9,-12741.458349469049
3964.9,-12711.88692089762
3966.9,-12669.744063754762
3968.9,-12652.172635183333
3970.9,-12658.029778040478
3972.9,-12650.029778040478
3974.9,-12604.315492326192
3976.9,-12541.172635183335
3978.9,-12503.88692089762
3980.9,-12513.601206611906
3982.9,-12541.315492326192
3984.9,-12534.744063754762
3986.9,-12483.744063754762
3988.9,-12439.744063754762
3990.9,-12443.029778040476
3992.9,-12460.172635183333
3994.9,-12431.744063754762
3996.9,-12356.315492326192
3998.9,-12291.744063754762
4000.9,-12283.458349469049
4002.9,-12312.88692089762
4004.9,-12322.458349469049
4006.8,-12285.744063754762
4008.8,-12237.315492326188
4010.8,-12223.458349469049
4012.8,-12233.74406375476
4014.8,-12212.601206611906
4016.8,-12137.029778040476
4018.8,-12050.744063754762
4020.8,-12009.601206611904
4022.8,-12015.601206611904
4024.8,-12020.744063754762
4026.8,-11988.45834946905
4028.8,-11930.744063754762
4030.8,-11883.88692089762
4032.8,-11863.315492326192
4034.8,-11848.458349469049
4036.8,-11808.744063754762
4038.8,-11743.31549232619
4040.8,-11689.172635183335
4042.8,-11681.744063754762
4044.8,-11713.029778040478
4046.8,-11741.172635183335
4048.8,-11742.172635183335
4050.8,-11739.744063754762
4052.8,-11775.029778040476
4054.8,-11848.172635183333
4056.8,-11911.172635183335
4058.8,-11929.744063754762
4060.8,-11928.601206611906
4062.8,-11951.886920897621
4064.8,-11998.744063754764
4066.8,-12025.744063754762
4068.8,-12005.029778040478
4070.8,-11958.029778040476
4072.8,-11928.029778040476
4074.8,-11928.601206611906
4076.8,-11930.601206611906
4078.78,-11903.172635183335
4080.75,-11854.601206611907
4082.73,-11823.172635183337
4084.7,-11827.744063754762
4086.7,-11840.88692089762
4088.7,-11822.029778040476
4090.7,-11767.172635183333
4092.7,-11712.315492326192
4094.7,-11688.601206611906
4096.7,-11688.029778040476
4098.7,-11680.744063754762
4100.7,-11655.458349469047
4102.7,-11631.88692089762
4104.7,-11634.315492326192
4106.7,-11661.315492326192
4108.7,-11688.458349469047
4110.7,-11697.458349469047
4112.7,-11698.029778040476
4114.7,-11718.744063754764
4116.7,-11771.029778040476
4118.7,-11828.172635183335
4120.7,-11848.172635183333
4122.7,-11815.172635183335
4124.7,-11746.744063754762
4126.7,-11653.31549232619
4128.7,-11504.029778040476
4130.7,-11253.315492326188
4132.7,-10900.029778040476
4134.7,-10498.172635183335
4136.7,-10105.744063754762
4138.7,-9745.029778040478
4140.7,-9420.458349469049
4142.7,-9161.458349469049
4144.7,-9029.458349469049
4146.7,-9077.315492326192
4148.7,-9305.886920897621
4150.7,-9669.172635183335
4152.7,-10114.886920897621
4154.7,-10603.886920897621
4156.7,-11093.029778040476
4158.68,-11525.029778040476
4160.65,-11843.458349469049
4162.63,-12018.315492326192
4164.6,-12057.601206611904
4166.6,-11997.886920897621
4168.6,-11885.458349469049
4170.6,-11757.31549232619
4172.6,-11625.744063754764
4174.6,-11487.315492326192
4176.6,-11361.458349469049
4178.6,-11293.458349469049
4180.6,-11286.315492326192
4182.6,-11278.31549232619
4184.6,-11232.172635183333
4186.6,-11189.458349469049
4188.6,-11191.029778040478
4190.6,-11207.744063754762
4192.6,-11195.31549232619
4194.6,-11155.744063754762
4196.6,-11110.172635183333
4198.6,-11067.31549232619
4200.6,-11040.601206611906
4202.6,-11044.315492326192
4204.6,-11059.744063754764
4206.6,-11051.886920897621
4208.6,-11026.601206611906
4210.6,-11016.458349469049
4212.6,-11013.458349469049
4214.6,-10983.88692089762
4216.6,-10938.744063754762
4218.6,-10913.458349469047
4220.6,-10898.31549232619
4222.6,-10868.029778040478
4224.6,-10844.458349469049
4226.6,-10855.172635183333
4228.6,-10868.029778040476
4230.6,-10841.172635183333
4232.6,-10800.172635183333
4234.6,-10797.744063754762
4236.6,-10823.886920897621
4238.58,-10823.458349469049
4240.55,-10788.029778040478
4242.53,-10765.744063754762
4244.5,-10781.172635183335
4246.5,-10800.31549232619
4248.5,-10785.172635183331
4250.5,-10739.744063754762
4252.5,-10695.029778040476
4254.5,-10674.886920897621
4256.5,-10674.601206611906
4258.5,-10665.458349469049
4260.5,-10632.744063754762
4262.5,-10604.31549232619
4264.5,-10617.458349469049
4266.5,-10664.886920897618
4268.5,-10697.172635183335
4270.5,-10684.31549232619
4272.5,-10651.88692089762
4274.5,-10641.601206611904
4276.5,-10651.458349469049
4278.5,-10644.172635183335
4280.5,-10607.744063754762
4282.5,-10568.744063754762
4284.5,-10546.601206611906
4286.5,-10535.886920897621
4288.5,-10528.315492326192
4290.5,-10513.601206611906
4292.5,-10475.172635183335
4294.5,-10416.172635183335
4296.5,-10370.458349469049
4298.5,-10357.886920897621
4300.5,-10348.172635183333
4302.5,-10302.458349469047
4304.5,-10234.458349469047
4306.5,-10195.315492326192
4308.5,-10200.601206611906
4310.5,-10204.886920897621
4312.5,-10166.029778040476
4314.5,-10105.601206611906
4316.5,-10072.172635183335
4318.48,-10066.744063754762
4320.45,-10047.601206611907
4322.43,-9993.029778040478
4324.4,-9923.458349469049
4326.4,-9868.88692089762
4328.4,-9839.601206611906
4330.4,-9818.315492326194
4332.4,-9778.029778040476
4334.4,-9717.744063754762
4336.4,-9670.88692089762
4338.4,-9660.601206611907
4340.4,-9667.88692089762
4342.4,-9660.029778040476
4344.4,-9633.172635183335
4346.4,-9606.744063754764
4348.4,-9593.315492326192
4350.4,-9588.029778040476
4352.4,-9576.886920897621
4354.4,-9547.029778040476
4356.4,-9498.88692089762
4358.4,-9455.601206611906
4360.4,-9444.744063754762
4362.4,-9458.172635183333
4364.4,-9453.88692089762
4366.4,-9417.458349469049
4368.4,-9390.601206611906
4370.4,-9409.88692089762
4372.4,-9444.88692089762
4374.4,-9439.458349469049
4376.4,-9393.744063754762
4378.4,-9359.744063754762
4380.4,-9369.744063754764
4382.4,-9402.88692089762
4384.4,-9417.88692089762
4386.4,-9400.458349469049
4388.4,-9381.886920897621
4390.4,-9403.458349469049
4392.4,-9457.029778040478
4394.4,-9486.029778040478
4396.3,-9462.886920897621
4398.3,-9431.458349469049
4400.3,-9446.744063754762
4402.3,-9501.315492326192
4404.3,-9539.458349469049
4406.3,-9532.744063754762
4408.3,-9510.601206611906
4410.3,-9514.601206611906
4412.3,-9547.029778040476
4414.3,-9577.458349469049
4416.3,-9581.029778040476
4418.3,-9565.029778040476
4420.3,-9564.601206611906
4422.3,-9606.458349469049
4424.3,-9670.315492326194
4426.3,-9704.886920897621
4428.3,-9688.601206611906
4430.3,-9655.029778040478
4432.3,-9648.172635183333
4434.3,-9670.744063754762
4436.3,-9685.172635183335
4438.3,-9661.45834946905
4440.3,-9620.315492326192
4442.3,-9616.601206611907
4444.3,-9669.029778040478
4446.3,-9728.029778040476
4448.3,-9736.458349469049
4450.3,-9704.172635183335
4452.3,-9692.315492326194
4454.3,-9726.458349469049
4456.3,-9763.31549232619
4458.3,-9755.601206611904
4460.3,-9717.172635183335
4462.3,-9698.315492326192
4464.3,-9718.315492326192
4466.3,-9746.315492326192
4468.28,-9744.458349469049
4470.25,-9710.744063754764
4472.23,-9676.458349469049
4474.2,-9669.029778040476
4476.2,-9684.458349469047
4478.2,-9697.315492326192
4480.2,-9690.172635183335
4482.2,-9669.029778040478
4484.2,-9655.458349469049
4486.2,-9662.172635183335
4488.2,-9674.172635183335
4490.2,-9664.601206611906
4492.2,-9633.029778040476
4494.2,-9612.172635183335
4496.2,-9628.172635183335
4498.2,-9665.315492326192
4500.2,-9682.744063754762
4502.2,-9662.886920897621
4504.2,-9635.172635183335
4506.2,-9640.029778040478
4508.2,-9669.601206611907
4510.2,-9670.172635183335
4512.2,-9619.88692089762
4514.2,-9569.315492326192
4516.2,-9573.601206611906
4518.2,-9612.88692089762
4520.2,-9622.744063754762
4522.2,-9585.744063754762
4524.2,-9549.601206611906
4526.2,-9553.601206611906
4528.2,-9574.601206611907
4530.2,-9561.88692089762
4532.2,-9500.744063754762
4534.2,-9422.029778040476
4536.2,-9361.029778040476
4538.2,-9327.029778040478
4540.2,-9304.744063754762
4542.2,-9274.172635183335
4544.2,-9232.315492326192
4546.2,-9199.315492326192
4548.18,-9190.458349469049
4550.15,-9188.886920897621
4552.13,-9162.315492326192
4554.1,-9106.744063754762
4556.1,-9053.315492326192
4558.1,-9034.172635183335
4560.1,-9048.744063754764
4562.1,-9067.886920897621
4564.1,-9068.744063754762
4566.1,-9067.315492326192
4568.1,-9098.886920897621
4570.1,-9164.172635183335
4572.1,-9217.744063754764
4574.1,-9227.172635183335
4576.1,-9215.744063754762
4578.1,-9231.458349469049
4580.1,-9283.172635183335
4582.1,-9330.315492326192
4584.1,-9336.744063754762
4586.1,-9320.315492326192
4588.1,-9328.601206611906
4590.1,-9372.172635183335
4592.1,-9408.458349469049
4594.1,-9398.886920897621
4596.1,-9357.886920897621
4598.1,-9333.886920897621
4600.1,-9352.315492326192
4602.1,-9388.601206611906
4604.1,-9401.601206611907
4606.1,-9386.744063754762
4608.1,-9379.172635183335
4610.1,-9402.315492326192
4612.1,-9435.458349469049
4614.1,-9442.458349469049
4616.1,-9416.744063754762
4618.1,-9387.458349469049
4620.1,-9382.744063754762
4622.1,-9394.31549232619
4624.1,-9390.458349469049
4626.1,-9362.029778040478
4628.08,-9334.029778040476
4630.05,-9330.029778040476
4632.03,-9349.458349469049
4634.0,-9380.172635183335
4636.0,-9408.172635183335
4638.0,-9421.458349469049
4640.0,-9427.315492326192
4642.0,-9445.172635183335
4644.0,-9457.029778040476
4646.0,-9395.744063754762
4648.0,-9212.88692089762
4650.0,-8932.31549232619
4652.0,-8607.172635183333
4654.0,-8248.172635183335
4656.0,-7830.601206611906
4658.0,-7366.601206611906
4660.0,-6935.458349469049
4662.0,-6633.315492326192
4664.0,-6505.458349469049
4666.0,-6538.601206611906
4668.0,-6704.88692089762
4670.0,-6993.458349469049
4672.0,-7398.029778040477
4674.0,-7887.886920897619
4676.0,-8392.31549232619
4678.0,-8819.744063754762
4680.0,-9108.172635183335
4682.0,-9266.172635183333
4684.0,-9343.315492326192
4686.0,-9357.886920897621
4688.0,-9292.029778040478
4690.0,-9163.029778040478
4692.0,-9037.172635183335
4694.0,-8956.744063754762
4696.0,-8910.315492326192
4698.0,-8881.315492326192
4700.0,-8867.172635183335
4702.0,-8855.172635183335
4704.0,-8832.601206611906
4706.0,-8816.315492326192
4707.98,-8828.601206611907
4709.95,-8850.744063754764
4711.93,-8845.601206611907
4713.9,-8818.88692089762
4715.9,-8809.458349469049
4717.9,-8821.172635183335
4719.9,-8825.458349469049
4721.9,-8823.315492326192
4723.9,-8835.88692089762
4725.9,-8849.601206611906
4727.9,-8844.029778040476
4729.9,-8839.458349469047
4731.9,-8852.458349469049
4733.9,-8851.88692089762
4735.9,-8814.172635183335
4737.9,-8769.88692089762
4739.9,-8753.601206611906
4741.9,-8753.744063754762
4743.9,-8738.172635183335
4745.9,-8701.458349469049
4747.9,-8669.029778040478
4749.9,-8659.172635183335
4751.9,-8654.886920897621
4753.9,-8625.601206611906
4755.9,-8567.886920897621
4757.9,-8511.172635183335
4759.9,-8487.458349469049
4761.9,-8495.601206611906
4763.9,-8499.172635183335
4765.9,-8469.029778040476
4767.9,-8424.601206611906
4769.9,-8409.744063754762
4771.9,-8430.172635183335
4773.9,-8444.172635183335
4775.9,-8423.31549232619
4777.9,-8391.029778040476
4779.9,-8388.744063754762
4781.9,-8421.744063754762
4783.9,-8455.744063754762
4785.9,-8459.315492326192
4787.88,-8436.458349469049
4789.85,-8414.172635183335
4791.83,-8409.886920897621
4793.8,-8414.601206611906
4795.8,-8407.315492326192
4797.8,-8385.029778040476
4799.8,-8370.315492326192
4801.8,-8382.458349469049
4803.8,-8410.886920897621
4805.8,-8426.601206611906
4807.8,-8412.172635183335
4809.8,-8376.172635183335
4811.8,-8343.458349469049
4813.8,-8330.172635183335
4815.8,-8321.744063754762
4817.8,-8289.458349469049
4819.8,-8236.886920897621
4821.8,-8207.886920897621
4823.8,-8230.172635183335
4825.8,-8272.029778040478
4827.8,-8282.029778040478
4829.8,-8257.315492326192
4831.8,-8239.744063754762
4833.8,-8250.172635183335
4835.8,-8258.744063754762
4837.8,-8226.458349469049
4839.8,-8157.458349469049
4841.8,-8094.7440637547625
4843.8,-8069.7440637547625
4845.8,-8065.315492326192
4847.8,-8037.7440637547625
4849.8,-7974.6012066119065
4851.8,-7913.458349469049
4853.8,-7889.172635183335
4855.8,-7888.88692089762
4857.8,-7877.029778040478
4859.8,-7843.458349469049
4861.8,-7806.315492326192
4863.8,-7785.45834946905
4865.7,-7785.315492326193
4867.7,-7787.6012066119065
4869.7,-7757.315492326192
4871.7,-7680.172635183335
4873.7,-7592.6012066119065
4875.7,-7547.315492326192
4877.7,-7547.315492326191
4879.7,-7541.88692089762
4881.7,-7501.7440637547625
4883.7,-7467.601206611906
4885.7,-7496.601206611906
4887.7,-7575.172635183333
4889.7,-7626.458349469049
4891.7,-7606.886920897619
4893.7,-7559.88692089762
4895.7,-7552.601206611906
4897.7,-7587.172635183335
4899.7,-7604.7440637547625
4901.7,-7570.458349469049
4903.7,-7521.172635183334
4905.7,-7515.601206611906
4907.7,-7555.744063754763
4909.7,-7586.029778040477
4911.7,-7572.315492326192
4913.7,-7548.172635183334
4915.7,-7565.458349469049
4917.7,-7624.7440637547625
4919.7,-7680.88692089762
4921.7,-7703.601206611906
4923.7,-7706.601206611906
4925.7,-7721.172635183335
4927.7,-7759.601206611906
4929.7,-7802.601206611906
4931.7,-7821.315492326191
4933.7,-7812.744063754763
4935.7,-7805.601206611905
4937.7,-7827.029778040477
4939.7,-7871.88692089762
4941.7,-7908.172635183335
4943.7,-7912.88692089762
4945.6,-7898.458349469049
4947.6,-7897.029778040477
4949.6,-7917.315492326192
4951.6,-7929.45834946905
4953.6,-7901.7440637547625
4955.6,-7842.744063754763
4957.6,-7794.029778040478
4959.6,-7781.886920897621
4961.6,-7785.601206611906
4963.6,-7767.601206611905
4965.6,-7730.029778040477
4967.6,-7712.88692089762
4969.6,-7733.88692089762
4971.6,-7762.886920897621
4973.6,-7763.886920897619
4975.6,-7739.7440637547625
4977.6,-7722.029778040477
4979.6,-7732.029778040477
4981.6,-7757.315492326191
4983.6,-7765.172635183335
4985.6,-7742.315492326193
4987.6,-7715.7440637547625
4989.6,-7718.601206611906
4991.6,-7743.172635183335
4993.6,-7745.744063754763
4995.6,-7705.029778040476
4997.6,-7652.886920897619
4999.6,-7634.886920897619
5001.6,-7653.458349469049
5003.6,-7669.315492326192
5005.6,-7653.601206611906
5007.6,-7622.458349469049
5009.6,-7613.172635183335
5011.6,-7639.6012066119065
5013.6,-7677.744063754763
5015.6,-7692.6012066119065
5017.58,-7676.744063754763
5019.55,-7665.744063754763
5021.53,-7700.172635183335
5023.5,-7766.315492326192
5025.5,-7801.6012066119065
5027.5,-7777.029778040478
5029.5,-7738.45834946905
5031.5,-7741.45834946905
5033.5,-7775.315492326193
5035.5,-7784.744063754764
5037.5,-7749.029778040478
5039.5,-7709.029778040478
5041.5,-7711.886920897621
5043.5,-7752.886920897621
5045.5,-7787.315492326193
5047.5,-7788.029778040478
5049.5,-7772.029778040478
5051.5,-7770.458349469049
5053.5,-7790.029778040477
5055.5,-7806.601206611906
5057.5,-7790.029778040478
5059.5,-7739.744063754763
5061.5,-7691.6012066119065
5063.5,-7673.88692089762
5065.5,-7667.172635183334
5067.5,-7630.172635183335
5069.5,-7556.744063754763
5071.5,-7482.029778040477
5073.5,-7436.601206611906
5075.5,-7414.601206611906
5077.5,-7388.88692089762
5079.5,-7343.172635183335
5081.5,-7289.88692089762
5083.5,-7259.458349469049
5085.5,-7265.172635183335
5087.5,-7282.315492326193
5089.5,-7274.172635183336
5091.5,-7238.886920897621
5093.5,-7215.886920897621
5095.5,-7233.744063754764
5097.48,-7267.88692089762
5099.45,-7276.029778040477
5101.43,-7266.172635183335
5103.4,-7289.172635183335
5105.4,-7363.315492326192
5107.4,-7448.172635183334
5109.4,-7501.172635183334
5111.4,-7524.172635183334
5113.4,-7548.601206611906
5115.4,-7592.458349469049
5117.4,-7634.744063754763
5119.4,-7638.029778040477
5121.4,-7603.029778040477
5123.4,-7576.601206611906
5125.4,-7589.88692089762
5127.4,-7621.601206611906
5129.4,-7636.7440637547625
5131.4,-7632.886920897619
5133.4,-7632.7440637547625
5135.4,-7652.6012066119065
5137.4,-7685.601206611906
5139.4,-7710.029778040477
5141.4,-7710.88692089762
5143.4,-7692.172635183335
5145.4,-7672.029778040478
5147.4,-7668.88692089762
5149.4,-7682.029778040476
5151.4,-7688.172635183334
5153.4,-7673.315492326191
5155.4,-7659.315492326191
5157.4,-7676.88692089762
5159.4,-7723.6012066119065
5161.4,-7767.172635183335
5163.4,-7783.88692089762
5165.4,-7781.172635183336
5167.4,-7788.886920897621
5169.4,-7822.6012066119065
5171.4,-7852.6012066119065
5173.4,-7830.029778040478
5175.4,-7748.601206611907
5177.38,-7646.172635183335
5179.35,-7535.315492326192
5181.33,-7368.7440637547625
5183.3,-7095.7440637547625
5185.3,-6724.172635183333
5187.3,-6306.45834946905
5189.3,-5891.6012066119065
5191.3,-5507.744063754763
5193.3,-5173.029778040477
5195.3,-4912.172635183335
5197.3,-4777.172635183335
5199.3,-4831.744063754763
5201.3,-5082.029778040478
5203.3,-5455.601206611906
5205.3,-5884.7440637547625
5207.3,-6352.315492326192
5209.3,-6823.601206611906
5211.3,-7215.315492326192
5213.3,-7475.172635183334
5215.3,-7620.601206611906
5217.3,-7673.029778040478
5219.3,-7631.029778040476
5221.3,-7527.744063754762
5223.3,-7433.458349469048
5225.3,-7372.88692089762
5227.3,-7309.315492326192
5229.3,-7231.029778040478
5231.3,-7181.172635183335
5233.3,-7177.601206611906
5235.3,-7183.601206611906
5237.3,-7182.886920897619
5239.3,-7200.172635183334
5241.3,-7235.7440637547625
5243.3,-7262.172635183334
5245.3,-7281.029778040477
5247.3,-7306.744063754763
5249.3,-7317.886920897621
5251.3,-7291.029778040478
5253.3,-7253.6012066119065
5255.3,-7246.172635183335
5257.28,-7259.601206611907
5259.25,-7252.458349469049
5261.23,-7214.6012066119065
5263.2,-7183.88692089762
5265.2,-7197.172635183335
5267.2,-7240.315492326192
5269.2,-7263.172635183335
5271.2,-7244.172635183335
5273.2,-7216.601206611906
5275.2,-7219.45834946905
5277.2,-7237.744063754764
5279.2,-7220.744063754763
5281.2,-7153.172635183335
5283.2,-7077.886920897621
5285.2,-7040.45834946905
5287.2,-7039.315492326192
5289.2,-7040.458349469049
5291.2,-7023.172635183334
5293.2,-6998.029778040477
5295.2,-6989.6012066119065
5297.2,-7006.88692089762
5299.2,-7030.315492326193
5301.2,-7032.172635183335
5303.2,-7010.744063754763
5305.2,-6993.315492326191
5307.2,-7001.744063754763
5309.2,-7024.744063754763
5311.2,-7032.744063754763
5313.2,-7012.88692089762
5315.2,-6982.029778040477
5317.2,-6965.744063754763
5319.2,-6970.315492326192
5321.2,-6976.029778040477
5323.2,-6960.315492326191
5325.2,-6925.744063754763
5327.2,-6902.029778040478
5329.2,-6908.458349469048
5331.2,-6924.029778040478
5333.2,-6913.029778040478
5335.2,-6876.7440637547625
5337.18,-6852.886920897619
5339.15,-6865.458349469049
5341.13,-6893.6012066119065
5343.1,-6900.315492326192
5345.1,-6880.886920897621
5347.1,-6869.601206611906
5349.1,-6892.88692089762
5351.1,-6926.6012066119065
5353.1,-6922.458349469049
5355.1,-6874.172635183335
5357.1,-6829.88692089762
5359.1,-6830.601206611906
5361.1,-6858.315492326191
5363.1,-6861.458349469048
5365.1,-6824.172635183334
5367.1,-6786.886920897619
5369.1,-6791.315492326192
5371.1,-6824.029778040477
5373.1,-6833.315492326192
5375.1,-6791.458349469049
5377.1,-6722.315492326193
5379.1,-6671.6012066119065
5381.1,-6655.172635183335
5383.1,-6642.458349469049
5385.1,-6595.88692089762
5387.1,-6520.88692089762
5389.1,-6460.315492326192
5391.1,-6443.315492326191
5393.1,-6454.458349469048
5395.1,-6453.6012066119065
5397.1,-6417.744063754763
5399.1,-6368.886920897621
5401.1,-6352.029778040478
5403.1,-6375.315492326191
5405.1,-6392.744063754763
5407.1,-6366.7440637547625
5409.1,-6319.601206611906
5411.1,-6300.458349469049
5413.1,-6318.744063754763
5415.1,-6336.172635183334
5417.08,-6317.45834946905
5419.05,-6274.886920897621
5421.03,-6255.172635183335
5423.0,-6283.315492326192
5425.0,-6327.744063754764
5427.0,-6339.315492326192
5429.0,-6315.315492326191
5431.0,-6300.458349469049
5433.0,-6320.7440637547625
5435.0,-6346.601206611906
5437.0,-6336.88692089762
5439.0,-6298.315492326192
5441.0,-6278.601206611906
5443.0,-6306.886920897621
5445.0,-6360.45834946905
5447.0,-6395.315492326192
5449.0,-6395.172635183334
5451.0,-6387.7440637547625
5453.0,-6413.45834946905
5455.0,-6472.88692089762
5457.0,-6517.029778040478
5459.0,-6512.172635183335
5461.0,-6495.886920897619
5463.0,-6529.315492326191
5465.0,-6606.7440637547625
5467.0,-6665.458349469049
5469.0,-6676.886920897619
5471.0,-6674.886920897621
5473.0,-6696.029778040478
5475.0,-6738.886920897621
5477.0,-6781.029778040477
5479.0,-6803.172635183335
5481.0,-6803.315492326192
5483.0,-6805.315492326192
5485.0,-6838.172635183335
5487.0,-6894.458349469049
5489.0,-6929.458349469049
5491.0,-6916.601206611906
5493.0,-6886.6012066119065
5494.9,-6888.458349469049
5496.9,-6918.886920897619
5498.9,-6926.7440637547625
5500.9,-6889.315492326191
5502.9,-6847.886920897619
5504.9,-6848.029778040477
5506.9,-6881.315492326192
5508.9,-6906.6012066119065
5510.9,-6904.315492326192
5512.9,-6889.315492326192
5514.9,-6887.45834946905
5516.9,-6907.172635183335
5518.9,-6930.172635183335
5520.9,-6928.88692089762
5522.9,-6896.315492326192
5524.9,-6860.172635183335
5526.9,-6861.029778040477
5528.9,-6904.886920897619
5530.9,-6945.7440637547625
5532.9,-6940.601206611906
5534.9,-6914.88692089762
5536.9,-6930.029778040477
5538.9,-6987.172635183335
5540.9,-7016.45834946905
5542.9,-6976.6012066119065
5544.9,-6914.029778040478
5546.9,-6899.458349469049
5548.9,-6937.029778040477
5550.9,-6968.029778040477
5552.9,-6953.315492326191
5554.9,-6923.029778040477
5556.9,-6931.6012066119065
5558.9,-6983.315492326193
5560.9,-7027.886920897621
5562.9,-7026.6012066119065
5564.9,-6999.172635183335
5566.9,-6994.172635183334
5568.9,-7026.029778040477
5570.9,-7058.315492326191
5572.9,-7052.029778040477
5574.8,-7017.315492326191
5576.8,-6999.744063754763
5578.8,-7019.172635183335
5580.8,-7048.7440637547625
5582.8,-7057.029778040477
5584.8,-7046.458349469048
5586.8,-7039.029778040477
5588.8,-7046.458349469049
5590.8,-7064.172635183334
5592.8,-7077.458349469049
5594.8,-7071.315492326192
5596.8,-7051.601206611906
5598.8,-7049.029778040477
5600.8,-7085.029778040477
5602.8,-7138.172635183334
5604.8,-7164.172635183334
5606.8,-7149.172635183335
5608.8,-7125.744063754762
5610.8,-7125.172635183335
5612.8,-7130.029778040477
5614.8,-7095.601206611906
5616.8,-7016.315492326193
5618.8,-6945.172635183335
5620.8,-6931.744063754763
5622.8,-6954.744063754763
5624.8,-6950.458349469049
5626.8,-6902.88692089762
5628.8,-6861.172635183335
5630.8,-6857.6012066119065
5632.8,-6861.6012066119065
5634.8,-6835.029778040478
5636.8,-6789.744063754763
5638.8,-6764.315492326192
5640.8,-6774.601206611906
5642.8,-6808.7440637547625
5644.8,-6850.315492326192
5646.8,-6887.029778040477
5648.8,-6914.601206611906
5650.8,-6944.744063754763
5652.8,-6996.315492326192
5654.7,-7063.88692089762
5656.7,-7115.601206611906
5658.7,-7137.744063754763
5660.7,-7159.458349469049
5662.7,-7211.744063754763
5664.7,-7280.315492326192
5666.7,-7321.172635183334
5668.7,-7316.172635183334
5670.7,-7296.315492326191
5672.7,-7304.172635183334
5674.7,-7342.744063754763
5676.7,-7373.744063754763
5678.7,-7370.886920897619
5680.7,-7357.601206611906
5682.7,-7379.886920897621
5684.7,-7443.029778040477
5686.7,-7497.7440637547625
5688.7,-7500.029778040477
5690.7,-7466.315492326191
5692.7,-7449.029778040477
5694.7,-7468.458349469049
5696.7,-7494.458349469049
5698.7,-7493.601206611906
5700.7,-7472.88692089762
5702.7,-7470.029778040479
5704.7,-7505.45834946905
5706.7,-7551.45834946905
5708.7,-7567.172635183336
5710.7,-7557.315492326192
5712.7,-7561.601206611906
5714.7,-7591.029778040478
5716.7,-7621.172635183335
5718.7,-7643.88692089762
5720.7,-7669.601206611906
5722.7,-7685.601206611906
5724.7,-7664.315492326192
5726.68,-7604.172635183335
5728.65,-7513.172635183335
5730.63,-7361.6012066119065
5732.6,-7101.315492326192
5734.6,-6735.886920897621
5736.6,-6326.315492326191
5738.6,-5924.458349469049
5740.6,-5545.7440637547625
5742.6,-5209.886920897621
5744.6,-4965.172635183334
5746.6,-4866.029778040477
5748.6,-4944.172635183335
5750.6,-5190.172635183335
5752.6,-5553.029778040478
5754.6,-5976.886920897621
5756.6,-6430.458349469049
5758.6,-6884.029778040478
5760.6,-7282.7440637547625
5762.6,-7572.88692089762
5764.6,-7740.029778040478
5766.6,-7807.029778040477
5768.6,-7806.458349469049
5770.6,-7766.315492326192
5772.6,-7707.886920897621
5774.6,-7643.315492326192
5776.6,-7578.45834946905
5778.6,-7529.172635183335
5780.6,-7518.744063754763
5782.6,-7543.886920897619
5784.6,-7565.458349469049
5786.6,-7557.886920897619
5788.6,-7545.029778040477
5790.6,-7565.601206611906
5792.6,-7618.88692089762
5794.6,-7660.886920897619
5796.6,-7653.315492326192
5798.6,-7612.458349469048
5800.6,-7592.7440637547625
5802.6,-7613.886920897619
5804.6,-7632.7440637547625
5806.58,-7609.458349469049
5808.55,-7566.31549232619
5810.53,-7551.31549232619
5812.5,-7570.458349469047
5814.5,-7587.458349469048
5816.5,-7573.601206611906
5818.5,-7538.172635183334
5820.5,-7509.7440637547625
5822.5,-7503.88692089762
5824.5,-7509.88692089762
5826.5,-7505.601206611906
5828.5,-7481.172635183334
5830.5,-7450.029778040477
5832.5,-7434.601206611906
5834.5,-7439.458349469048
5836.5,-7442.458349469049
5838.5,-7422.315492326192
5840.5,-7390.172635183335
5842.5,-7378.886920897621
5844.5,-7400.886920897621
5846.5,-7432.6012066119065
5848.5,-7442.744063754764
5850.5,-7424.886920897621
5852.5,-7401.458349469049
5854.5,-7400.029778040478
5856.5,-7419.88692089762
5858.5,-7427.315492326192
5860.5,-7401.744063754763
5862.5,-7376.458349469049
5864.5,-7400.172635183335
5866.5,-7465.886920897619
5868.5,-7513.458349469049
5870.5,-7507.172635183334
5872.5,-7478.172635183335
5874.5,-7477.458349469049
5876.5,-7504.315492326192
5878.5,-7509.7440637547625
5880.5,-7471.172635183334
5882.5,-7428.7440637547625
5884.5,-7429.172635183334
5886.48,-7463.886920897619
5888.45,-7485.601206611906
5890.43,-7468.886920897619
5892.4,-7432.315492326191
5894.4,-7410.458349469049
5896.4,-7416.601206611906
5898.4,-7430.7440637547625
5900.4,-7427.88692089762
5902.4,-7410.88692089762
5904.4,-7404.458349469049
5906.4,-7424.029778040477
5908.4,-7458.172635183334
5910.4,-7473.886920897621
5912.4,-7446.172635183335
5914.4,-7393.744063754763
5916.4,-7365.601206611907
5918.4,-7373.744063754763
5920.4,-7368.315492326192
5922.4,-7307.315492326192
5924.4,-7220.886920897619
5926.4,-7171.029778040477
5928.4,-7168.315492326192
5930.4,-7163.315492326192
5932.4,-7115.601206611905
5934.4,-7046.315492326192
5936.4,-7009.172635183335
5938.4,-7020.6012066119065
5940.4,-7040.744063754763
5942.4,-7029.458349469049
5944.4,-6999.029778040478
5946.4,-6992.744063754763
5948.4,-7024.88692089762
5950.4,-7062.88692089762
5952.4,-7068.7440637547625
5954.4,-7041.315492326192
5956.4,-7010.172635183335
5958.4,-6999.172635183335
5960.4,-7007.886920897621
5962.4,-7017.029778040476
5964.4,-7009.029778040478
5966.38,-6990.886920897621
5968.35,-6990.458349469048
5970.33,-7016.172635183334
5972.3,-7033.601206611906
5974.3,-7008.029778040477
5976.3,-6959.029778040478
5978.3,-6942.315492326192
5980.3,-6979.6012066119065
5982.3,-7035.029778040477
5984.3,-7065.172635183334
5986.3,-7072.744063754763
5988.3,-7093.458349469049
5990.3,-7143.6012066119065
5992.3,-7195.6012066119065
5994.3,-7211.458349469049
5996.3,-7191.172635183335
5998.3,-7176.172635183335
6000.3,-7201.029778040477
6002.3,-7249.601206611906
6004.3,-7274.6012066119065
6006.3,-7258.029778040477
6008.3,-7234.172635183335
6010.3,-7246.172635183335
6012.3,-7293.886920897621
6014.3,-7339.029778040478
6016.3,-7358.315492326193
6018.3,-7372.744063754763
6020.3,-7416.315492326192
6022.3,-7488.88692089762
6024.3,-7554.315492326192
6026.3,-7580.88692089762
6028.3,-7569.458349469049
6030.3,-7545.458349469049
6032.3,-7531.172635183334
6034.3,-7525.029778040477
6036.3,-7504.315492326192
6038.3,-7456.315492326192
6040.3,-7405.458349469048
6042.3,-7392.601206611906
6044.3,-7424.458349469049
6046.28,-7460.172635183335
6048.25,-7462.172635183335
6050.23,-7446.458349469048
6052.2,-7458.886920897619
6054.2,-7504.601206611906
6056.2,-7533.6012066119065
6058.2,-7510.6012066119065
6060.2,-7468.172635183334
6062.2,-7462.458349469049
6064.2,-7498.45834946905
6066.2,-7528.315492326192
6068.2,-7516.172635183335
6070.2,-7481.886920897621
6072.2,-7470.7440637547625
6074.2,-7493.886920897621
6076.2,-7515.601206611906
6078.2,-7505.315492326192
6080.2,-7481.601206611907
6082.2,-7486.172635183334
6084.2,-7526.601206611906
6086.2,-7568.7440637547625
6088.2,-7578.601206611906
6090.2,-7556.458349469049
6092.2,-7529.88692089762
6094.2,-7522.88692089762
6096.2,-7532.458349469049
6098.2,-7535.315492326193
6100.2,-7517.172635183336
6102.2,-7493.886920897621
6104.2,-7497.315492326192
6106.2,-7535.7440637547625
6108.2,-7575.315492326191
6110.2,-7575.88692089762
6112.2,-7542.601206611907
6114.2,-7519.744063754764
6116.2,-7530.458349469049
6118.2,-7546.315492326192
6120.2,-7527.6012066119065
6122.2,-7476.7440637547625
6124.2,-7436.458349469049
6126.18,-7438.88692089762
6128.15,-7466.88692089762
6130.13,-7475.315492326191
6132.1,-7451.601206611906
6134.1,-7436.458349469049
6136.1,-7468.315492326191
6138.1,-7524.315492326192
6140.1,-7544.7440637547625
6142.1,-7511.7440637547625
6144.1,-7471.029778040477
6146.1,-7463.029778040477
6148.1,-7466.458349469049
6150.1,-7438.172635183334
6152.1,-7382.172635183334
6154.1,-7341.601206611906
6156.1,-7337.7440637547625
6158.1,-7355.029778040476
6160.1,-7375.172635183334
6162.1,-7389.886920897619
6164.1,-7390.458349469048
6166.1,-7378.601206611905
6168.1,-7375.601206611906
6170.1,-7393.458349469048
6172.1,-7408.886920897619
6174.1,-7394.315492326191
6176.1,-7361.029778040477
6178.1,-7348.886920897619
6180.1,-7374.601206611906
6182.1,-7406.315492326192
6184.1,-7400.172635183335
6186.1,-7360.7440637547625
6188.1,-7339.458349469048
6190.1,-7364.7440637547625
6192.1,-7398.88692089762
6194.1,-7388.7440637547625
6196.1,-7338.315492326192
6198.1,-7304.172635183334
6200.1,-7323.458349469049
6202.1,-7367.7440637547625
6204.1,-7376.458349469049
6206.08,-7334.029778040476
6208.05,-7294.029778040476
6210.03,-7305.744063754763
6212.0,-7335.601206611906
6214.0,-7314.7440637547625
6216.0,-7249.315492326191
6218.0,-7206.886920897619
6220.0,-7202.458349469049
6222.0,-7187.458349469049
6224.0,-7145.029778040476
6226.0,-7106.88692089762
6228.0,-7079.315492326192
6230.0,-7036.744063754763
6232.0,-6987.029778040477
6234.0,-6970.315492326192
6236.0,-6986.172635183334
6238.0,-6988.172635183334
6240.0,-6963.172635183334
6242.0,-6954.7440637547625
6244.0,-6987.172635183335
6246.0,-7028.88692089762
6248.0,-7049.458349469048
6250.0,-7055.315492326191
6252.0,-7059.601206611906
6254.0,-7069.172635183334
6256.0,-7088.601206611906
6258.0,-7103.7440637547625
6260.0,-7091.315492326192
6262.0,-7062.886920897619
6264.0,-7055.601206611905
6266.0,-7076.601206611906
6268.0,-7095.6012066119065
6270.0,-7088.88692089762
6272.0,-7062.744063754763
6274.0,-7037.172635183335
6276.0,-7021.744063754763
6278.0,-7009.315492326192
6280.0,-6987.6012066119065
6282.0,-6956.172635183334
6284.0,-6930.886920897619
6285.98,-6929.315492326192
6287.95,-6950.886920897621
6289.93,-6972.45834946905
6291.9,-6973.6012066119065
6293.9,-6967.315492326192
6295.9,-6988.029778040478
6297.9,-7040.45834946905
6299.9,-7082.744063754763
6301.9,-7078.315492326192
6303.9,-7049.029778040477
6305.9,-7047.7440637547625
6307.9,-7088.172635183335
6309.9,-7129.601206611906
6311.9,-7135.172635183334
6313.9,-7117.7440637547625
6315.9,-7116.458349469048
6317.9,-7141.029778040476
6319.9,-7150.7440637547625
6321.9,-7090.744063754763
6323.9,-6944.315492326192
6325.9,-6738.172635183335
6327.9,-6492.88692089762
6329.9,-6189.029778040477
6331.9,-5801.744063754763
6333.9,-5358.315492326192
6335.9,-4932.88692089762
6337.9,-4586.315492326192
6339.9,-4338.45834946905
6341.9,-4202.315492326192
6343.9,-4204.601206611906
6345.9,-4360.172635183335
6347.9,-4659.458349469049
6349.9,-5079.88692089762
6351.9,-5574.88692089762
6353.9,-6058.315492326192
6355.9,-6448.7440637547625
6357.9,-6731.172635183334
6359.9,-6935.315492326191
6361.9,-7058.7440637547625
6363.8,-7063.029778040476
6365.8,-6951.172635183334
6367.8,-6803.458349469049
6369.8,-6704.315492326192
6371.8,-6659.029778040477
6373.8,-6612.88692089762
6375.8,-6538.458349469049
6377.8,-6470.315492326192
6379.8,-6451.601206611906
6381.8,-6473.029778040478
6383.8,-6482.7440637547625
6385.8,-6450.601206611906
6387.8,-6405.315492326192
6389.8,-6393.6012066119065
6391.8,-6416.886920897619
6393.8,-6431.886920897619
6395.8,-6413.172635183334
6397.8,-6385.172635183335
6399.8,-6385.315492326192
6401.8,-6417.315492326191
6403.8,-6453.458349469049
6405.8,-6464.172635183334
6407.8,-6441.744063754763
6409.8,-6407.458349469049
6411.8,-6392.029778040478
6413.8,-6395.744063754764
6415.8,-6382.029778040478
6417.8,-6329.172635183335
6419.8,-6268.744063754763
6421.8,-6247.315492326192
6423.8,-6262.029778040478
6425.8,-6265.458349469049
6427.8,-6230.172635183334
6429.8,-6179.315492326191
6431.8,-6148.88692089762
6433.8,-6142.458349469049
6435.8,-6130.88692089762
6437.8,-6088.029778040477
6439.8,-6025.315492326191
6441.8,-5984.6012066119065
6443.7,-5991.45834946905
6445.7,-6019.744063754763
6447.7,-6021.601206611906
6449.7,-5991.172635183335
6451.7,-5972.315492326192
6453.7,-5992.029778040476
6455.7,-6016.458349469049
6457.7,-5997.458349469049
6459.7,-5941.458349469049
6461.7,-5898.315492326192
6463.7,-5891.886920897621
6465.7,-5895.172635183335
6467.7,-5869.172635183335
6469.7,-5804.744063754764
6471.7,-5727.744063754763
6473.7,-5671.315492326192
6475.7,-5639.601206611906
6477.7,-5602.88692089762
6479.7,-5538.458349469049
6481.7,-5467.886920897619
6483.7,-5436.601206611906
6485.7,-5454.886920897621
6487.7,-5478.029778040478
6489.7,-5458.315492326192
6491.7,-5403.029778040477
6493.7,-5358.458349469049
6495.7,-5345.315492326192
6497.7,-5336.458349469049
6499.7,-5297.315492326191
6501.7,-5228.029778040477
6503.7,-5165.45834946905
6505.7,-5147.744063754763
6507.7,-5167.172635183335
6509.7,-5170.7440637547625
6511.7,-5126.88692089762
6513.7,-5071.029778040478
6515.68,-5054.7440637547625
6517.65,-5070.172635183335
6519.63,-5062.6012066119065
6521.6,-5010.172635183335
6523.6,-4952.458349469049
6525.6,-4934.886920897619
6527.6,-4947.315492326191
6529.6,-4937.601206611906
6531.6,-4877.172635183335
6533.6,-4795.45834946905
6535.6,-4741.458349469049
6537.6,-4725.172635183334
6539.6,-4712.029778040477
6541.6,-4673.315492326192
6543.6,-4620.315492326192
6545.6,-4584.601206611906
6547.6,-4578.029778040478
6549.6,-4581.029778040478
6551.6,-4565.172635183335
6553.6,-4521.6012066119065
6555.6,-4472.029778040477
6557.6,-4449.744063754763
6559.6,-4461.029778040477
6561.6,-4470.6012066119065
6563.6,-4441.88692089762
6565.6,-4390.744063754763
6567.6,-4373.88692089762
6569.6,-4411.172635183335
6571.6,-4448.601206611906
6573.6,-4425.315492326192
6575.6,-4356.45834946905
6577.6,-4309.45834946905
6579.6,-4308.315492326192
6581.6,-4301.88692089762
6583.6,-4236.88692089762
6585.6,-4132.744063754763
6587.6,-4058.1726351833345
6589.6,-4040.601206611906
6591.6,-4036.7440637547634
6593.6,-4001.0297780404776
6595.58,-3947.8869208976203
6597.55,-3924.0297780404776
6599.53,-3946.6012066119065
6601.5,-3990.8869208976207
6603.5,-4021.315492326192
6605.5,-4022.4583494690487
6607.5,-4012.172635183335
6609.5,-4021.4583494690487
6611.5,-4052.458349469049
6613.5,-4073.4583494690487
6615.5,-4063.7440637547634
6617.5,-4043.744063754763
6619.5,-4048.0297780404776
6621.5,-4082.315492326192
6623.5,-4118.172635183335
6625.5,-4126.88692089762
6627.5,-4110.172635183335
6629.5,-4097.315492326192
6631.5,-4112.172635183335
6633.5,-4144.6012066119065
6635.5,-4159.172635183335
6637.5,-4137.88692089762
6639.5,-4107.172635183335
6641.5,-4106.315492326192
6643.5,-4131.029778040477
6645.5,-4136.029778040477
6647.5,-4100.029778040477
6649.5,-4057.4583494690487
6651.5,-4050.4583494690487
6653.5,-4070.1726351833345
6655.5,-4071.4583494690487
6657.5,-4035.029778040477
6659.5,-3989.88692089762
6661.5,-3971.4583494690487
6663.5,-3978.4583494690487
6665.5,-3980.172635183335
6667.5,-3959.172635183335
6669.5,-3932.315492326192
6671.5,-3927.0297780404776
6673.5,-3947.6012066119065
6675.48,-3975.7440637547634
6677.45,-3990.8869208976203
6679.43,-3981.8869208976207
6681.4,-3953.744063754764
6683.4,-3924.1726351833354
6685.4,-3901.029778040478
6687.4,-3867.886920897621
6689.4,-3806.1726351833345
6691.4,-3724.6012066119056
6693.4,-3654.4583494690487
6695.4,-3618.6012066119056
6697.4,-3608.8869208976203
6699.4,-3595.601206611906
6701.4,-3565.1726351833345
6703.4,-3539.315492326192
6705.4,-3541.8869208976203
6707.4,-3554.8869208976203
6709.4,-3530.601206611906
6711.4,-3455.8869208976203
6713.4,-3384.172635183335
6715.4,-3371.3154923261923
6717.4,-3392.744063754764
6719.4,-3382.6012066119065
6721.4,-3348.458349469049
6723.4,-3357.0297780404776
6725.4,-3411.172635183335
6727.4,-3445.172635183334
6729.4,-3437.744063754763
6731.4,-3428.0297780404776
6733.4,-3427.315492326192
6735.4,-3410.744063754763
6737.4,-3387.029778040477
6739.4,-3394.029778040477
6741.4,-3426.4583494690487
6743.4,-3438.0297780404776
6745.4,-3416.8869208976203
6747.4,-3399.315492326192
6749.4,-3403.6012066119065
6751.4,-3408.4583494690487
6753.4,-3397.601206611906
6755.38,-3376.0297780404776
6757.35,-3352.0297780404776
6759.33,-3339.6012066119065
6761.3,-3350.8869208976207
6763.3,-3362.8869208976203
6765.3,-3340.4583494690487
6767.3,-3299.458349469049
6769.3,-3288.6012066119065
6771.3,-3309.8869208976203
6773.3,-3317.0297780404776
6775.3,-3291.7440637547634
6777.3,-3269.029778040478
6779.3,-3279.458349469049
6781.3,-3307.6012066119065
6783.3,-3323.0297780404776
6785.3,-3320.8869208976203
6787.3,-3314.601206611906
6789.3,-3312.8869208976203
6791.3,-3316.458349469049
6793.3,-3315.6012066119065
6795.3,-3287.6012066119065
6797.3,-3220.172635183335
6799.3,-3138.315492326192
6801.3,-3084.4583494690487
6803.3,-3068.8869208976207
6805.3,-3058.3154923261923
6807.3,-3021.0297780404776
6809.3,-2973.8869208976203
6811.3,-2962.315492326192
6813.3,-2995.172635183335
6815.3,-3024.315492326192
6817.3,-3007.4583494690487
6819.3,-2962.458349469049
6821.3,-2939.029778040478
6823.3,-2952.029778040478
6825.3,-2967.315492326192
6827.3,-2944.8869208976203
6829.3,-2886.8869208976203
6831.3,-2833.7440637547634
6833.3,-2815.7440637547634
6835.28,-2817.4583494690496
6837.25,-2802.744063754763
6839.23,-2763.601206611906
6841.2,-2730.315492326192
6843.2,-2730.601206611906
6845.2,-2751.315492326192
6847.2,-2748.7440637547634
6849.2,-2701.0297780404776
6851.2,-2635.315492326192
6853.2,-2593.8869208976203
6855.2,-2581.458349469049
6857.2,-2564.8869208976203
6859.2,-2517.6012066119065
6861.2,-2451.601206611906
6863.2,-2399.8869208976207
6865.2,-2377.0297780404776
6867.2,-2362.7440637547634
6869.2,-2325.3154923261923
6871.2,-2260.0297780404776
6873.2,-2200.315492326192
6875.2,-2182.172635183335
6877.2,-2200.172635183335
6879.2,-2211.6012066119065
6881.2,-2191.458349469049
6883.2,-2167.8869208976207
6885.2,-2186.315492326192
6887.2,-2246.7440637547634
6889.2,-2299.172635183335
6891.2,-2307.6012066119065
6893.2,-2296.458349469049
6895.2,-2309.315492326192
6897.2,-2339.7440637547634
6899.2,-2341.0297780404776
6901.2,-2298.315492326192
6903.2,-2250.458349469049
6905.2,-2237.0297780404776
6907.2,-2253.315492326192
6909.2,-2261.6012066119065
6911.2,-2236.315492326192
6913.1,-2192.8869208976207
6915.1,-2166.315492326192
6917.1,-2164.458349469049
6919.1,-2160.315492326192
6921.1,-2129.458349469049
6923.1,-2077.7440637547634
6925.1,-2034.0297780404776
6927.1,-2023.601206611906
6929.1,-2041.601206611906
6931.1,-2053.029778040477
6933.1,-2032.3154923261918
6935.1,-1998.6012066119065
6937.1,-1995.4583494690492
6939.1,-2036.8869208976207
6941.1,-2089.6012066119065
6943.1,-2114.458349469049
6945.1,-2116.6012066119065
6947.1,-2139.0297780404776
6949.1,-2201.8869208976203
6951.1,-2265.0297780404776
6953.1,-2268.6012066119065
6955.1,-2199.4583494690487
6957.1,-2093.172635183335
6959.1,-1969.8869208976205
6961.1,-1792.7440637547634
6963.1,-1507.0297780404778
6965.1,-1116.4583494690492
6967.1,-693.8869208976205
6969.1,-303.0297780404777
6971.1,56.82736481666501
6973.1,402.827364816665
6975.1,690.1130791023793
6977.1,825.2559362452364
6979.1,756.2559362452365
6981.1,517.2559362452365
6983.1,173.684507673808
6985.08,-242.17263518333485
6987.05,-718.7440637547634
6989.03,-1210.3154923261918
6991.0,-1635.458349469049
6993.0,-1933.3154923261918
6995.0,-2097.0297780404776
6997.0,-2151.458349469049
6999.0,-2128.601206611906
7001.0,-2069.0297780404776
7003.0,-2005.7440637547634
7005.0,-1937.315492326192
7007.0,-1849.7440637547636
7009.0,-1766.8869208976207
7011.0,-1728.6012066119065
7013.0,-1725.029778040478
7015.0,-1703.8869208976207
7017.0,-1647.8869208976205
7019.0,-1598.601206611906
7021.0,-1598.4583494690492
7023.0,-1633.8869208976205
7025.0,-1655.4583494690492
7027.0,-1640.1726351833347
7029.0,-1616.4583494690492
7031.0,-1620.4583494690492
7033.0,-1645.1726351833347
7035.0,-1646.4583494690492
7037.0,-1597.7440637547634
7039.0,-1525.1726351833347
7041.0,-1483.4583494690492
7043.0,-1490.0297780404778
7045.0,-1499.8869208976205
7047.0,-1469.1726351833347
7049.0,-1423.172635183335
7051.0,-1418.3154923261918
7053.0,-1456.315492326192
7055.0,-1482.315492326192
7057.0,-1462.172635183335
7059.0,-1418.315492326192
7061.0,-1389.8869208976205
7063.0,-1389.8869208976205
7064.98,-1400.7440637547634
7066.95,-1393.4583494690492
7068.93,-1353.3154923261923
7070.9,-1300.7440637547634
7072.9,-1274.7440637547634
7074.9,-1284.7440637547634
7076.9,-1293.315492326192
7078.9,-1266.3154923261918
7080.9,-1222.8869208976205
7082.9,-1212.8869208976207
7084.9,-1246.315492326192
7086.9,-1276.8869208976207
7088.9,-1260.0297780404776
7090.9,-1208.6012066119063
7092.9,-1177.172635183335
7094.9,-1198.1726351833347
7096.9,-1241.8869208976205
7098.9,-1253.4583494690492
7100.9,-1226.7440637547636
7102.9,-1213.7440637547634
7104.9,-1245.7440637547634
7106.9,-1282.4583494690492
7108.9,-1267.0297780404778
7110.9,-1202.4583494690492
7112.9,-1139.315492326192
7114.9,-1106.172635183335
7116.9,-1081.172635183335
7118.9,-1029.0297780404778
7120.9,-948.4583494690492
7122.9,-875.6012066119063
7124.9,-840.4583494690492
7126.9,-833.7440637547635
7128.9,-824.3154923261922
7130.9,-799.1726351833349
7132.9,-772.315492326192
7134.9,-764.8869208976206
7136.9,-783.4583494690492
7138.9,-810.4583494690492
7140.9,-813.4583494690492
7142.9,-778.4583494690493
7144.88,-734.0297780404777
7146.85,-721.8869208976206
7148.83,-737.0297780404777
7150.8,-727.8869208976206
7152.8,-669.6012066119063
7154.8,-604.6012066119063
7156.8,-584.6012066119064
7158.8,-599.4583494690492
7160.8,-595.1726351833349
7162.8,-548.1726351833349
7164.8,-492.02977804047777
7166.8,-468.4583494690492
7168.8,-473.6012066119064
7170.8,-467.88692089762066
7172.8,-431.6012066119064
7174.8,-387.31549232619204
7176.8,-366.17263518333493
7178.8,-370.74406375476343
7180.8,-378.4583494690492
7182.8,-371.31549232619204
7184.8,-356.7440637547635
7186.8,-356.88692089762066
7188.8,-380.1726351833349
7190.8,-410.6012066119063
7192.8,-424.7440637547635
7194.8,-414.7440637547635
7196.8,-396.6012066119064
7198.8,-394.88692089762066
7200.8,-417.7440637547635
7202.8,-445.74406375476343
7204.8,-452.45834946904915
7206.8,-437.02977804047777
7208.8,-428.7440637547635
7210.8,-449.74406375476343
7212.8,-480.88692089762066
7214.8,-480.1726351833349
7216.8,-441.45834946904915
7218.8,-411.31549232619204
7220.8,-430.4583494690492
7222.8,-475.3154923261921
7224.78,-481.4583494690492
7226.75,-428.02977804047777
7228.73,-372.88692089762066
7230.7,-376.17263518333493
7232.7,-408.7440637547635
7234.7,-396.60120661190626
7236.7,-344.31549232619204
7238.7,-329.02977804047777
7240.7,-370.74406375476343
7242.7,-406.8869208976206
7244.7,-404.02977804047777
7246.7,-399.8869208976206
7248.7,-421.1726351833349
7250.7,-443.0297780404777
7252.7,-447.8869208976206
7254.7,-456.31549232619204
7256.7,-478.4583494690492
7258.7,-489.31549232619204
7260.7,-476.02977804047777
7262.7,-461.7440637547635
7264.7,-465.17263518333493
7266.7,-479.315492326192
7268.7,-498.31549232619204
7270.7,-521.7440637547635
7272.7,-543.6012066119063
7274.7,-571.8869208976206
7276.7,-624.7440637547635
7278.7,-680.315492326192
7280.7,-689.0297780404778
7282.7,-655.3154923261919
7284.7,-639.0297780404777
7286.7,-658.315492326192
7288.7,-658.7440637547635
7290.7,-603.7440637547635
7292.7,-538.0297780404778
7294.7,-523.6012066119063
7296.7,-551.8869208976206
7298.7,-567.0297780404777
7300.7,-550.8869208976206
7302.7,-535.4583494690492
7304.68,-543.6012066119064
7306.65,-562.7440637547635
7308.63,-571.4583494690492
7310.6,-558.6012066119063
7312.6,-523.6012066119064
7314.6,-482.1726351833349
7316.6,-463.1726351833349
7318.6,-480.31549232619204
7320.6,-509.3154923261921
7322.6,-514.4583494690492
7324.6,-499.31549232619204
7326.6,-507.02977804047777
7328.6,-555.1726351833349
7330.6,-601.0297780404778
7332.6,-598.6012066119064
7334.6,-561.7440637547634
7336.6,-539.1726351833348
7338.6,-549.4583494690492
7340.6,-565.7440637547635
7342.6,-553.3154923261919
7344.6,-511.74406375476343
7346.6,-476.6012066119064
7348.6,-474.0297780404777
7350.6,-483.0297780404777
7352.6,-463.45834946904915
7354.6,-410.88692089762066
7356.6,-360.4583494690492
7358.6,-338.1726351833349
7360.6,-330.31549232619204
7362.6,-306.02977804047777
7364.6,-259.6012066119063
7366.6,-218.88692089762066
7368.6,-209.4583494690492
7370.6,-222.17263518333493
7372.6,-226.88692089762066
7374.6,-209.88692089762066
7376.6,-189.60120661190635
7378.6,-196.31549232619207
7380.6,-240.4583494690492
7382.6,-299.02977804047777
7384.58,-337.6012066119064
7386.55,-348.4583494690492
7388.53,-359.02977804047777
7390.5,-392.8869208976206
7392.5,-433.45834946904915
7394.5,-439.17263518333493
7396.5,-395.74406375476354
7398.5,-340.7440637547635
7400.5,-327.88692089762066
7402.5,-366.6012066119063
7404.5,-409.17263518333493
7406.5,-412.17263518333493
7408.5,-396.1726351833349
7410.5,-414.31549232619204
7412.5,-471.8869208976206
7414.5,-512.7440637547635
7416.5,-491.1726351833348
7418.5,-431.17263518333493
7420.5,-396.6012066119064
7422.5,-413.3154923261921
7424.5,-442.172635183335
7426.5,-438.31549232619204
7428.5,-412.315492326192
7430.5,-410.8869208976206
7432.5,-451.60120661190626
7434.5,-503.88692089762066
7436.5,-527.315492326192
7438.5,-514.0297780404777
7440.5,-495.31549232619204
7442.5,-506.17263518333493
7444.5,-539.0297780404777
7446.5,-551.315492326192
7448.5,-522.0297780404778
7450.5,-477.172635183335
7452.5,-452.74406375476354
7454.5,-453.31549232619204
7456.5,-449.45834946904915
7458.5,-411.6012066119063
7460.5,-349.45834946904915
7462.4,-312.02977804047777
7464.4,-326.7440637547635
7466.4,-353.88692089762066
7468.4,-334.02977804047777
7470.4,-270.31549232619204
7472.4,-224.45834946904924
7474.4,-231.17263518333493
7476.4,-252.31549232619207
7478.4,-232.88692089762063
7480.4,-179.4583494690492
7482.4,-152.88692089762066
7484.4,-190.0297780404778
7486.4,-258.4583494690492
7488.4,-299.1726351833349
7490.4,-296.6012066119063
7492.4,-288.8869208976206
7494.4,-311.0297780404777
7496.4,-344.8869208976206
7498.4,-342.0297780404777
7500.4,-291.8869208976206
7502.4,-239.31549232619204
7504.4,-224.4583494690492
7506.4,-237.02977804047777
7508.4,-240.4583494690492
7510.4,-216.17263518333488
7512.4,-173.60120661190635
7514.4,-137.4583494690492
7516.4,-125.88692089762064
7518.4,-126.7440637547635
7520.4,-107.17263518333493
7522.4,-61.88692089762064
7524.4,-29.31549232619207
7526.4,-43.02977804047779
7528.4,-87.31549232619207
7530.4,-118.0297780404778
7532.4,-115.88692089762064
7534.4,-107.45834946904922
7536.4,-134.7440637547635
7538.4,-203.31549232619207
7540.4,-268.17263518333493
7542.3,-291.02977804047777
7544.3,-295.02977804047777
7546.3,-330.88692089762066
7548.3,-397.8869208976206
7550.3,-441.02977804047777
7552.3,-428.7440637547635
7554.3,-396.1726351833349
7556.3,-395.17263518333493
7558.3,-429.45834946904915
7560.3,-458.1726351833349
7562.3,-452.17263518333493
7564.3,-426.0297780404777
7566.3,-414.1726351833348
7568.3,-427.4583494690491
7570.3,-439.7440637547635
7572.3,-419.31549232619204
7574.3,-369.1726351833349
7576.3,-325.31549232619204
7578.3,-314.31549232619204
7580.3,-324.7440637547635
7582.3,-325.6012066119063
7584.3,-307.02977804047777
7586.3,-292.0297780404778
7588.3,-309.88692089762066
7590.3,-362.8869208976206
7592.3,-422.6012066119063
7594.3,-458.02977804047777
7596.3,-470.7440637547635
7598.3,-491.4583494690492
7600.3,-533.315492326192
7602.3,-556.315492326192
7604.3,-500.6012066119064
7606.3,-352.45834946904927
7608.3,-152.88692089762066
7610.3,67.82736481666505
7612.3,338.5416505309508
7614.28,702.9702219595222
7616.25,1136.827364816665
7618.23,1545.970221959522
7620.2,1857.9702219595222
7622.2,2077.1130791023793
7624.2,2221.2559362452366
7626.2,2249.255936245236
7628.2,2097.827364816665
7630.2,1765.3987933880935
7632.2,1317.5416505309508
7634.2,830.5416505309506
7636.2,356.9702219595222
7638.2,-70.02977804047777
7640.2,-425.31549232619204
7642.2,-682.6012066119063
7644.2,-817.6012066119063
7646.2,-827.315492326192
7648.2,-747.315492326192
7650.2,-639.7440637547635
7652.2,-549.315492326192
7654.2,-473.8869208976206
7656.2,-389.7440637547635
7658.2,-299.6012066119063
7660.2,-237.60120661190632
7662.2,-230.02977804047777
7664.2,-262.8869208976206
7666.2,-292.0297780404777
7668.2,-287.4583494690492
7670.2,-270.02977804047777
7672.2,-285.6012066119064
7674.2,-334.6012066119064
7676.2,-360.6012066119064
7678.2,-328.6012066119064
7680.2,-278.17263518333493
7682.2,-266.7440637547635
7684.2,-289.6012066119063
7686.2,-294.6012066119064
7688.2,-257.4583494690492
7690.2,-207.31549232619207
7692.2,-180.4583494690492
7694.18,-177.17263518333493
7696.15,-173.02977804047777
7698.13,-156.0297780404778
7700.1,-138.0297780404778
7702.1,-136.4583494690492
7704.1,-155.88692089762066
7706.1,-186.02977804047777
7708.1,-208.17263518333493
7710.1,-205.4583494690492
7712.1,-178.45834946904924
7714.1,-150.45834946904924
7716.1,-143.60120661190635
7718.1,-149.1726351833349
7720.1,-137.88692089762063
7722.1,-102.60120661190636
7724.1,-73.31549232619207
7726.1,-82.0297780404778
7728.1,-119.17263518333493
7730.1,-136.3154923261921
7732.1,-107.02977804047778
7734.1,-74.7440637547635
7736.1,-95.60120661190635
7738.1,-142.7440637547635
7740.1,-140.7440637547635
7742.1,-88.17263518333492
7744.1,-57.31549232619207
7746.1,-74.0297780404778
7748.1,-92.60120661190636
7750.1,-86.17263518333493
7752.1,-76.88692089762064
7754.1,-78.45834946904921
7756.1,-76.88692089762066
7758.1,-68.0297780404778
7760.1,-64.7440637547635
7762.1,-62.31549232619207
7764.1,-36.45834946904921
7766.1,13.113079102379354
7768.1,57.39879338809364
7770.1,86.54165053095078
7772.1,119.82736481666504
7774.08,162.11307910237934
7776.05,200.54165053095076
7778.03,231.25593624523648
7780.0,247.9702219595222
7782.0,236.82736481666504
7784.0,215.25593624523648
7786.0,225.68450767380793
7788.0,270.2559362452365
7790.0,306.3987933880936
7792.0,318.54165053095073
7794.0,341.54165053095073
7796.0,401.9702219595222
7798.0,473.82736481666507
7800.0,508.6845076738079
7802.0,495.6845076738079
7804.0,475.3987933880936
7806.0,489.2559362452365
7808.0,527.5416505309507
7810.0,547.1130791023793
7812.0,533.9702219595222
7814.0,520.9702219595222
7816.0,539.684507673808
7818.0,581.3987933880936
7820.0,613.9702219595222
7822.0,617.5416505309508
7824.0,600.1130791023794
7826.0,589.6845076738078
7828.0,608.9702219595222
7830.0,648.2559362452364
7832.0,673.5416505309506
7834.0,669.827364816665
7836.0,666.2559362452364
7838.0,697.9702219595222
7840.0,753.9702219595222
7842.0,784.6845076738078
7844.0,767.9702219595221
7846.0,739.6845076738078
7848.0,745.8273648166651
7850.0,783.6845076738078
7852.0,813.3987933880935
7853.98,811.2559362452364
7855.95,794.5416505309508
7857.93,794.6845076738078
7859.9,816.5416505309507
7861.9,828.9702219595222
7863.9,804.5416505309507
7865.9,758.9702219595221
7867.9,733.3987933880935
7869.9,742.9702219595222
7871.9,764.9702219595222
7873.9,772.9702219595222
7875.9,762.9702219595222
7877.9,747.6845076738078
7879.9,739.8273648166651
7881.9,738.2559362452365
7883.9,723.3987933880936
7885.9,676.1130791023793
7887.9,607.9702219595221
7889.9,558.1130791023794
7891.9,549.5416505309507
7893.9,558.684507673808
7895.9,545.5416505309507
7897.9,509.82736481666507
7899.9,493.54165053095073
7901.9,518.2559362452365
7903.9,547.1130791023793
7905.9,527.3987933880936
7907.9,461.54165053095073
7909.9,406.97022195952206
7911.9,403.3987933880936
7913.9,421.11307910237934
7915.9,402.82736481666507
7917.9,342.68450767380784
7919.9,295.39879338809357
7921.9,299.1130791023793
7923.9,322.9702219595222
7925.9,314.5416505309508
7927.9,274.2559362452365
7929.9,250.39879338809362
7931.9,274.54165053095073
7933.88,324.2559362452365
7935.85,348.9702219595222
7937.83,324.3987933880936
7939.8,278.25593624523646
7941.8,255.54165053095076
7943.8,260.9702219595222
7945.8,256.6845076738079
7947.8,220.97022195952223
7949.8,178.97022195952223
7951.8,167.68450767380793
7953.8,190.6845076738079
7955.8,219.25593624523648
7957.8,225.82736481666504
7959.8,210.6845076738079
7961.8,200.6845076738079
7963.8,223.39879338809362
7965.8,274.2559362452365
7967.8,313.9702219595222
7969.8,311.97022195952223
7971.8,289.1130791023794
7973.8,294.11307910237934
7975.8,333.1130791023793
7977.8,354.1130791023793
7979.8,319.2559362452365
7981.8,264.6845076738079
7983.8,254.6845076738079
7985.8,290.6845076738079
7987.8,309.3987933880936
7989.8,275.25593624523646
7991.8,231.39879338809362
7993.8,237.6845076738079
7995.8,288.54165053095073
7997.8,325.39879338809357
7999.8,317.25593624523646
8001.8,293.2559362452365
8003.8,290.39879338809357
8005.8,304.25593624523646
8007.8,307.6845076738079
8009.8,291.11307910237934
8011.8,266.25593624523646
8013.78,250.11307910237932
8015.75,255.54165053095076
8017.73,276.82736481666507
8019.7,283.3987933880936
8021.7,249.11307910237934
8023.7,188.9702219595222
8025.7,145.11307910237937
8027.7,135.11307910237937
8029.7,131.9702219595222
8031.7,104.97022195952219
8033.7,64.39879338809364
8035.7,50.39879338809363
8037.7,78.9702219595222
8039.7,114.9702219595222
8041.7,111.82736481666507
8043.7,69.54165053095078
8045.7,36.2559362452365
8047.7,45.68450767380792
8049.7,71.68450767380793
8051.7,60.541650530950776
8053.7,5.970221959522206
8055.7,-38.029778040477794
8057.7,-31.74406375476351
8059.7,-8.744063754763506
8061.7,-28.601206611906363
8063.7,-91.17263518333493
8065.7,-137.88692089762066
8067.7,-133.31549232619207
8069.7,-104.17263518333493
8071.7,-93.7440637547635
8073.7,-108.31549232619207
8075.7,-116.31549232619207
8077.7,-88.17263518333495
8079.7,-31.60120661190636
8081.7,14.113079102379356
8083.7,23.97022195952221
8085.7,18.255936245236498
8087.7,35.25593624523649
8089.7,81.25593624523648
8091.7,123.39879338809362
8093.68,132.68450767380793
8095.65,122.82736481666507
8097.63,131.39879338809362
8099.6,168.82736481666504
8101.6,204.97022195952218
8103.6,209.9702219595222
8105.6,187.82736481666504
8107.6,166.68450767380793
8109.6,166.54165053095076
8111.6,180.82736481666507
8113.6,179.5416505309508
8115.6,143.11307910237934
8117.6,97.2559362452365
8119.6,90.68450767380791
8121.6,127.39879338809362
8123.6,153.6845076738079
8125.6,129.6845076738079
8127.6,84.82736481666507
8129.6,75.39879338809364
8131.6,106.54165053095078
8133.6,128.82736481666507
8135.6,107.54165053095076
8137.6,66.2559362452365
8139.6,49.970221959522206
8141.6,67.25593624523648
8143.6,86.54165053095079
8145.6,81.2559362452365
8147.6,59.25593624523649
8149.6,50.82736481666506
8151.6,76.25593624523648
8153.6,122.68450767380791
8155.6,153.39879338809362
8157.6,150.39879338809365
8159.6,139.11307910237937
8161.6,154.68450767380793
8163.6,194.54165053095076
8165.6,224.9702219595222
8167.6,227.39879338809362
8169.6,220.82736481666504
8171.6,240.11307910237932
8173.58,296.3987933880936
8175.55,359.6845076738079
8177.53,386.827364816665
8179.5,371.54165053095073
8181.5,350.39879338809357
8183.5,349.6845076738079
8185.5,343.827364816665
8187.5,288.827364816665
8189.5,187.3987933880936
8191.5,92.54165053095079
8193.5,40.684507673807936
8195.5,9.113079102379345
8197.5,-37.31549232619207
8199.5,-85.74406375476349
8201.5,-96.60120661190635
8203.5,-63.45834946904921
8205.5,-14.315492326192079
8207.5,25.25593624523649
8209.5,47.113079102379345
8211.5,59.25593624523649
8213.5,80.39879338809362
8215.5,116.39879338809362
8217.5,144.11307910237934
8219.5,138.39879338809362
8221.5,108.11307910237936
8223.5,87.11307910237934
8225.5,93.54165053095078
8227.5,113.54165053095078
8229.5,119.54165053095078
8231.5,96.82736481666507
8233.5,59.11307910237936
8235.5,43.82736481666507
8237.5,69.39879338809364
8239.5,92.54165053095078
8241.5,51.684507673807914
8243.5,-37.886920897620655
8245.5,-99.17263518333493
8247.5,-113.60120661190635
8249.5,-139.7440637547635
8251.5,-201.60120661190638
8253.48,-251.88692089762066
8255.45,-249.31549232619204
8257.43,-192.4583494690492
8259.4,-80.60120661190638
8261.4,94.97022195952219
8263.4,331.2559362452365
8265.4,625.1130791023793
8267.4,986.2559362452364
8269.4,1403.2559362452364
8271.4,1820.8273648166648
8273.4,2181.1130791023793
8275.4,2460.6845076738077
8277.4,2635.6845076738073
8279.4,2659.6845076738073
8281.4,2514.6845076738073
8283.4,2231.1130791023793
8285.4,1833.9702219595222
8287.4,1339.827364816665
8289.4,816.3987933880935
8291.4,364.5416505309506
8293.4,26.255936245236498
8295.4,-223.45834946904918
8297.4,-396.88692089762054
8299.4,-466.8869208976206
8301.4,-427.31549232619204
8303.4,-333.4583494690492
8305.4,-259.1726351833349
8307.4,-227.74406375476346
8309.4,-206.02977804047777
8311.4,-162.4583494690492
8313.4,-110.45834946904921
8315.4,-86.88692089762064
8317.4,-99.4583494690492
8319.4,-113.74406375476349
8321.4,-98.02977804047778
8323.4,-63.45834946904922
8325.4,-40.02977804047778
8327.4,-34.60120661190636
8329.4,-30.88692089762064
8331.3,-12.601206611906353
8333.3,25.68450767380792
8335.3,68.9702219595222
8337.3,86.82736481666507
8339.3,68.9702219595222
8341.3,45.11307910237935
8343.3,44.68450767380792
8345.3,56.255936245236484
8347.3,48.541650530950776
8349.3,17.97022195952221
8351.3,-6.315492326192073
8353.3,1.1130791023793511
8355.3,28.970221959522213
8357.3,38.25593624523649
8359.3,6.827364816665067
8361.3,-40.172635183334926
8363.3,-56.45834946904921
8365.3,-32.172635183334926
8367.3,-9.172635183334926
8369.3,-22.458349469049214
8371.3,-47.45834946904921
8373.3,-34.744063754763495
8375.3,16.970221959522213
8377.3,59.541650530950776
8379.3,63.2559362452365
8381.3,50.113079102379345
8383.3,52.39879338809363
8385.3,69.11307910237934
8387.3,75.54165053095076
8389.3,58.684507673807914
8391.3,29.398793388093637
8393.3,10.398793388093639
8395.3,20.113079102379352
8397.3,56.82736481666507
8399.3,94.39879338809364
8401.3,107.39879338809364
8403.28,101.68450767380791
8405.25,105.82736481666507
8407.23,130.54165053095076
8409.2,151.5416505309508
8411.2,140.11307910237932
8413.2,103.54165053095078
8415.2,84.9702219595222
8417.2,116.11307910237934
8419.2,173.97022195952218
8421.2,201.39879338809362
8423.2,178.39879338809362
8425.2,153.5416505309508
8427.2,180.82736481666507
8429.2,240.39879338809362
8431.2,261.82736481666507
8433.2,224.54165053095076
8435.2,187.68450767380793
8437.2,205.11307910237932
8439.2,254.11307910237934
8441.2,275.827364816665
8443.2,258.1130791023793
8445.2,244.11307910237934
8447.2,271.1130791023794
8449.2,326.1130791023794
8451.2,366.6845076738079
8453.2,371.9702219595222
8455.2,364.9702219595221
8457.2,380.9702219595221
8459.2,421.11307910237934
8461.2,449.25593624523646
8463.2,439.6845076738079
8465.2,410.2559362452365
8467.2,396.11307910237934
8469.2,406.68450767380796
8471.2,423.3987933880936
8473.2,428.82736481666507
8475.2,424.68450767380796
8477.2,429.2559362452365
8479.2,458.3987933880936
8481.2,503.54165053095073
8483.18,534.1130791023793
8485.15,533.8273648166651
8487.13,522.9702219595222
8489.1,535.8273648166651
8491.1,577.8273648166651
8493.1,615.3987933880936
8495.1,614.3987933880936
8497.1,588.5416505309508
8499.1,585.1130791023793
8501.1,615.2559362452365
8503.1,629.1130791023793
8505.1,584.827364816665
8507.1,513.1130791023793
8509.1,480.9702219595222
8511.1,503.2559362452365
8513.1,529.9702219595222
8515.1,519.5416505309507
8517.1,491.25593624523646
8519.1,488.9702219595222
8521.1,518.9702219595222
8523.1,549.1130791023794
8525.1,553.1130791023793
8527.1,531.9702219595222
8529.1,505.9702219595222
8531.1,496.68450767380796
8533.1,505.3987933880936
8535.1,502.9702219595222
8537.1,463.39879338809357
8539.1,404.827364816665
8541.1,369.6845076738079
8543.1,366.6845076738079
8545.1,361.11307910237934
8547.1,321.827364816665
8549.1,261.82736481666507
8551.1,222.11307910237937
8553.1,222.2559362452365
8555.1,235.5416505309508
8557.1,223.5416505309508
8559.1,187.2559362452365
8561.1,162.11307910237937
8563.08,164.68450767380796
8565.05,166.39879338809365
8567.03,129.25593624523648
8569.0,55.255936245236484
8571.0,-13.17263518333494
8573.0,-46.029778040477794
8575.0,-58.45834946904922
8577.0,-80.45834946904921
8579.0,-114.74406375476349
8581.0,-142.60120661190635
8583.0,-150.17263518333493
8585.0,-141.4583494690492
8587.0,-139.88692089762063
8589.0,-168.60120661190635
8591.0,-215.31549232619204
8593.0,-237.8869208976206
8595.0,-221.02977804047774
8597.0,-199.45834946904918
8599.0,-210.88692089762063
8601.0,-247.8869208976206
8603.0,-272.88692089762066
8605.0,-269.02977804047777
8607.0,-261.17263518333493
8609.0,-279.17263518333493
8611.0,-315.6012066119063
8613.0,-335.6012066119064
8615.0,-319.8869208976206
8617.0,-284.02977804047777
8619.0,-261.6012066119063
8621.0,-274.6012066119063
8623.0,-310.6012066119064
8625.0,-331.6012066119063
8627.0,-322.17263518333493
8629.0,-315.31549232619204
8631.0,-343.7440637547635
8633.0,-382.7440637547635
8635.0,-379.7440637547635
8637.0,-331.8869208976206
8639.0,-294.6012066119063
8641.0,-309.8869208976206
8642.98,-354.6012066119063
8644.95,-374.6012066119063
8646.93,-354.6012066119063
8648.9,-335.0297780404777
8650.9,-354.60120661190626
8652.9,-397.88692089762066
8654.9,-417.3154923261921
8656.9,-398.7440637547635
8658.9,-378.31549232619204
8660.9,-392.1726351833349
8662.9,-429.8869208976206
8664.9,-453.6012066119063
8666.9,-451.315492326192
8668.9,-449.0297780404777
8670.9,-468.8869208976206
8672.9,-499.02977804047777
8674.9,-517.1726351833349
8676.9,-523.7440637547635
8678.9,-531.1726351833349
8680.9,-542.315492326192
8682.9,-558.6012066119064
8684.9,-586.315492326192
8686.9,-615.1726351833349
8688.9,-620.8869208976207
8690.9,-605.4583494690493
8692.9,-601.7440637547635
8694.9,-617.315492326192
8696.9,-617.8869208976206
8698.9,-585.7440637547635
8700.9,-552.8869208976206
8702.9,-554.4583494690492
8704.9,-583.7440637547634
8706.9,-608.1726351833349
8708.9,-603.0297780404778
8710.9,-566.1726351833348
8712.9,-524.8869208976206
8714.9,-518.6012066119063
8716.9,-550.6012066119064
8718.9,-576.7440637547635
8720.9,-568.7440637547635
8722.88,-567.4583494690493
8724.85,-625.315492326192
8726.83,-713.4583494690493
8728.8,-750.8869208976206
8730.8,-718.8869208976206
8732.8,-677.0297780404777
8734.8,-669.8869208976206
8736.8,-680.0297780404778
8738.8,-676.1726351833349
8740.8,-655.8869208976206
8742.8,-638.7440637547634
8744.8,-643.3154923261919
8746.8,-671.6012066119064
8748.8,-703.6012066119064
8750.8,-710.1726351833349
8752.8,-682.8869208976206
8754.8,-654.4583494690492
8756.8,-664.6012066119063
8758.8,-703.0297780404777
8760.8,-725.8869208976206
8762.8,-730.4583494690492
8764.8,-756.6012066119063
8766.8,-814.1726351833348
8768.8,-868.7440637547634
8770.8,-894.8869208976205
8772.8,-893.458349469049
8774.8,-868.6012066119064
8776.8,-830.0297780404777
8778.8,-804.1726351833349
8780.8,-806.1726351833349
8782.8,-813.6012066119063
8784.8,-799.8869208976205
8786.8,-780.0297780404778
8788.8,-783.7440637547635
8790.8,-801.0297780404777
8792.8,-802.7440637547634
8794.8,-789.315492326192
8796.8,-769.0297780404777
8798.8,-732.1726351833349
8800.8,-688.8869208976206
8802.78,-674.0297780404777
8804.75,-684.7440637547635
8806.73,-678.1726351833349
8808.7,-649.1726351833349
8810.7,-643.0297780404778
8812.7,-680.0297780404777
8814.7,-722.1726351833348
8816.7,-730.0297780404777
8818.7,-718.1726351833348
8820.7,-734.7440637547635
8822.7,-797.8869208976206
8824.7,-875.1726351833348
8826.7,-928.315492326192
8828.7,-960.1726351833348
8830.7,-1001.6012066119063
8832.7,-1058.315492326192
8834.7,-1090.0297780404776
8836.7,-1060.8869208976205
8838.7,-997.1726351833349
8840.7,-958.6012066119063
8842.7,-962.6012066119064
8844.7,-979.6012066119064
8846.7,-991.315492326192
8848.7,-1007.8869208976206
8850.7,-1035.6012066119063
8852.7,-1066.0297780404778
8854.7,-1094.6012066119065
8856.7,-1116.315492326192
8858.7,-1114.315492326192
8860.7,-1083.1726351833347
8862.7,-1052.315492326192
8864.7,-1053.4583494690492
8866.7,-1074.7440637547634
8868.7,-1079.4583494690492
8870.7,-1065.0297780404778
8872.7,-1071.4583494690492
8874.7,-1127.0297780404778
8876.7,-1209.0297780404778
8878.7,-1268.6012066119063
8880.7,-1286.458349469049
8882.68,-1292.315492326192
8884.65,-1326.6012066119063
8886.63,-1382.172635183335
8888.6,-1399.0297780404778
8890.6,-1328.172635183335
8892.6,-1186.0297780404776
8894.6,-1018.1726351833348
8896.6,-821.7440637547634
8898.6,-542.1726351833348
8900.6,-155.60120661190638
8902.6,282.1130791023793
8904.6,685.5416505309508
8906.6,1011.684507673808
8908.6,1257.1130791023793
8910.6,1402.2559362452364
8912.6,1394.9702219595222
8914.6,1195.1130791023793
8916.6,816.3987933880936
8918.6,318.3987933880936
8920.6,-224.74406375476357
8922.6,-744.1726351833349
8924.6,-1185.172635183335
8926.6,-1517.4583494690492
8928.6,-1732.8869208976205
8930.6,-1828.315492326192
8932.6,-1803.4583494690494
8934.6,-1691.172635183335
8936.6,-1564.7440637547634
8938.6,-1479.8869208976207
8940.6,-1422.6012066119065
8942.6,-1349.3154923261918
8944.6,-1263.3154923261918
8946.6,-1213.4583494690492
8948.6,-1222.7440637547634
8950.6,-1253.315492326192
8952.6,-1255.315492326192
8954.6,-1230.315492326192
8956.6,-1223.8869208976205
8958.6,-1255.4583494690492
8960.6,-1287.315492326192
8962.58,-1276.7440637547634
8964.55,-1233.172635183335
8966.53,-1206.0297780404776
8968.5,-1225.8869208976205
8970.5,-1267.1726351833347
8972.5,-1278.172635183335
8974.5,-1248.4583494690492
8976.5,-1222.4583494690492
8978.5,-1238.3154923261918
8980.5,-1279.6012066119063
8982.5,-1301.3154923261918
8984.5,-1287.0297780404776
8986.5,-1266.6012066119063
8988.5,-1276.6012066119063
8990.5,-1314.1726351833347
8992.5,-1341.7440637547634
8994.5,-1333.172635183335
8996.5,-1301.6012066119065
8998.5,-1282.172635183335
9000.5,-1296.172635183335
9002.5,-1326.7440637547636
9004.5,-1333.172635183335
9006.5,-1306.0297780404776
9008.5,-1290.3154923261918
9010.5,-1326.315492326192
9012.5,-1388.1726351833347
9014.5,-1415.1726351833347
9016.5,-1392.8869208976205
9018.5,-1365.8869208976207
9020.5,-1372.172635183335
9022.5,-1395.6012066119063
9024.5,-1392.4583494690492
9026.5,-1349.8869208976205
9028.5,-1306.8869208976205
9030.5,-1310.1726351833347
9032.5,-1355.7440637547634
9034.5,-1393.1726351833347
9036.5,-1391.4583494690492
9038.5,-1376.6012066119063
9040.5,-1388.1726351833347
9042.48,-1425.7440637547634
9044.45,-1455.6012066119065
9046.43,-1454.0297780404776
9048.4,-1428.315492326192
9050.4,-1405.3154923261918
9052.4,-1399.1726351833347
9054.4,-1389.7440637547636
9056.4,-1342.6012066119065
9058.4,-1258.458349469049
9060.4,-1181.3154923261918
9062.4,-1147.7440637547634
9064.4,-1145.0297780404776
9066.4,-1135.8869208976207
9068.4,-1108.8869208976207
9070.4,-1087.0297780404778
9072.4,-1091.4583494690492
9074.4,-1115.6012066119065
9076.4,-1129.6012066119063
9078.4,-1104.172635183335
9080.4,-1043.8869208976207
9082.4,-996.6012066119064
9084.4,-999.1726351833349
9086.4,-1020.8869208976206
9088.4,-1005.6012066119064
9090.4,-962.315492326192
9092.4,-953.7440637547635
9094.4,-997.8869208976206
9096.4,-1040.315492326192
9098.4,-1031.4583494690492
9100.4,-984.7440637547635
9102.4,-946.315492326192
9104.4,-935.7440637547635
9106.4,-933.1726351833349
9108.4,-910.7440637547634
9110.4,-865.7440637547634
9112.4,-826.6012066119064
9114.4,-824.7440637547635
9116.4,-854.315492326192
9118.4,-871.6012066119063
9120.4,-848.4583494690492
9122.38,-811.1726351833348
9124.35,-804.315492326192
9126.33,-828.7440637547634
9128.3,-845.6012066119064
9130.3,-832.6012066119064
9132.3,-807.7440637547635
9134.3,-799.1726351833349
9136.3,-815.6012066119063
9138.3,-843.6012066119063
9140.3,-855.172635183335
9142.3,-833.4583494690493
9144.3,-806.1726351833349
9146.3,-822.3154923261919
9148.3,-879.315492326192
9150.3,-914.315492326192
9152.3,-894.4583494690492
9154.3,-870.8869208976207
9156.3,-904.8869208976206
9158.3,-976.6012066119064
9160.3,-1015.315492326192
9162.3,-999.7440637547635
9164.3,-982.7440637547635
9166.3,-1011.0297780404776
9168.3,-1063.8869208976205
9170.3,-1089.8869208976205
9172.3,-1078.6012066119063
9174.3,-1065.8869208976205
9176.3,-1081.8869208976205
9178.3,-1116.6012066119063
9180.3,-1139.4583494690492
9182.3,-1139.4583494690492
9184.3,-1139.1726351833347
9186.3,-1164.8869208976205
9188.3,-1214.0297780404778
9190.3,-1266.315492326192
9192.3,-1314.0297780404776
9194.3,-1361.7440637547634
9196.3,-1411.172635183335
9198.3,-1463.8869208976207
9200.3,-1523.172635183335
9202.28,-1579.0297780404776
9204.25,-1612.0297780404776
9206.23,-1625.315492326192
9208.2,-1648.0297780404778
9210.2,-1694.8869208976205
9212.2,-1740.0297780404778
9214.2,-1749.6012066119063
9216.2,-1729.315492326192
9218.2,-1719.6012066119063
9220.2,-1740.8869208976205
9222.2,-1769.3154923261918
9224.2,-1773.0297780404776
9226.2,-1757.0297780404778
9228.2,-1756.7440637547636
9230.2,-1792.7440637547636
9232.2,-1841.6012066119063
9234.2,-1861.601206611906
9236.2,-1843.7440637547634
9238.2,-1825.0297780404776
9240.2,-1841.1726351833347
9242.2,-1880.7440637547634
9244.2,-1903.0297780404776
9246.2,-1895.3154923261916
9248.2,-1887.7440637547634
9250.2,-1910.315492326192
9252.2,-1957.172635183335
9254.2,-1998.0297780404776
9256.2,-2004.8869208976207
9258.2,-1976.4583494690492
9260.2,-1947.7440637547634
9262.2,-1951.8869208976207
9264.2,-1968.8869208976207
9266.2,-1957.7440637547636
9268.2,-1927.1726351833347
9270.2,-1915.6012066119063
9272.2,-1923.315492326192
9274.2,-1924.8869208976207
9276.2,-1919.0297780404778
9278.2,-1916.172635183335
9280.2,-1912.6012066119063
9282.18,-1908.4583494690492
9284.15,-1919.315492326192
9286.13,-1949.8869208976205
9288.1,-1979.8869208976205
9290.1,-1991.601206611906
9292.1,-1996.601206611906
9294.1,-2011.6012066119063
9296.1,-2026.8869208976205
9298.1,-2029.458349469049
9300.1,-2032.7440637547634
9302.1,-2047.172635183335
9304.1,-2056.8869208976207
9306.1,-2058.458349469049
9308.1,-2071.315492326192
9310.1,-2089.3154923261923
9312.1,-2083.029778040478
9314.1,-2059.0297780404776
9316.1,-2056.7440637547634
9318.1,-2082.172635183335
9320.1,-2096.8869208976207
9322.1,-2081.3154923261923
9324.1,-2067.6012066119065
9326.1,-2096.8869208976207
9328.1,-2166.8869208976207
9330.1,-2237.458349469049
9332.1,-2278.458349469049
9334.1,-2298.8869208976207
9336.1,-2330.3154923261923
9338.1,-2385.3154923261923
9340.1,-2433.4583494690496
9342.1,-2432.744063754764
9344.1,-2387.8869208976203
9346.1,-2353.458349469049
9348.1,-2367.315492326192
9350.1,-2402.7440637547634
9352.1,-2407.172635183335
9354.1,-2373.8869208976203
9356.1,-2346.601206611906
9358.1,-2355.172635183335
9360.1,-2382.172635183335
9362.08,-2397.315492326192
9364.05,-2391.6012066119065
9366.03,-2373.172635183335
9368.0,-2359.172635183335
9370.0,-2365.1726351833345
9372.0,-2379.315492326192
9374.0,-2365.8869208976207
9376.0,-2317.029778040478
9378.0,-2271.458349469049
9380.0,-2264.6012066119065
9382.0,-2285.458349469049
9384.0,-2294.172635183335
9386.0,-2271.7440637547634
9388.0,-2246.7440637547634
9390.0,-2264.7440637547634
9392.0,-2325.0297780404776
9394.0,-2370.315492326192
9396.0,-2359.8869208976203
9398.0,-2324.6012066119065
9400.0,-2319.0297780404776
9402.0,-2343.315492326192
9404.0,-2345.8869208976203
9406.0,-2298.458349469049
9408.0,-2238.172635183335
9410.0,-2220.3154923261923
9412.0,-2250.3154923261923
9414.0,-2283.744063754764
9416.0,-2282.458349469049
9418.0,-2250.315492326192
9420.0,-2219.315492326192
9422.0,-2211.0297780404776
9424.0,-2208.7440637547634
9426.0,-2177.8869208976203
9428.0,-2120.4583494690487
9430.0,-2080.7440637547634
9432.0,-2088.315492326192
9434.0,-2125.8869208976207
9436.0,-2162.315492326192
9438.0,-2189.315492326192
9440.0,-2220.315492326192
9441.98,-2273.1726351833345
9443.95,-2353.172635183335
9445.93,-2437.315492326192
9447.9,-2486.6012066119065
9449.9,-2490.0297780404776
9451.9,-2485.315492326192
9453.9,-2512.315492326192
9455.9,-2554.1726351833345
9457.9,-2558.0297780404776
9459.9,-2518.315492326192
9461.9,-2498.601206611906
9463.9,-2548.0297780404776
9465.9,-2628.172635183335
9467.9,-2658.8869208976203
9469.9,-2624.8869208976203
9471.9,-2591.172635183335
9473.9,-2605.601206611906
9475.9,-2632.7440637547634
9477.9,-2613.6012066119065
9479.9,-2554.601206611906
9481.9,-2518.7440637547634
9483.9,-2542.8869208976207
9485.9,-2598.172635183335
9487.9,-2631.744063754763
9489.9,-2625.4583494690487
9491.9,-2608.029778040477
9493.9,-2613.8869208976207
9495.9,-2644.7440637547634
9497.9,-2672.4583494690496
9499.9,-2675.8869208976207
9501.9,-2668.315492326192
9503.9,-2682.0297780404776
9505.9,-2721.8869208976207
9507.9,-2748.458349469049
9509.9,-2714.0297780404776
9511.9,-2607.7440637547634
9513.9,-2453.8869208976207
9515.9,-2272.6012066119065
9517.9,-2048.0297780404776
9519.9,-1744.8869208976207
9521.88,-1363.172635183335
9523.85,-962.1726351833348
9525.83,-611.1726351833349
9527.8,-333.1726351833349
9529.8,-119.17263518333489
9531.8,11.113079102379352
9533.8,-3.4583494690492387
9535.8,-211.7440637547635
9537.8,-596.315492326192
9539.8,-1079.4583494690492
9541.8,-1576.4583494690492
9543.8,-2042.0297780404776
9545.8,-2462.315492326192
9547.8,-2810.029778040477
9549.8,-3030.8869208976207
9551.8,-3093.458349469049
9553.8,-3035.8869208976207
9555.8,-2936.458349469049
9557.8,-2844.172635183335
9559.8,-2760.6012066119065
9561.8,-2677.8869208976207
9563.8,-2607.8869208976207
9565.8,-2574.8869208976203
9567.8,-2589.7440637547634
9569.8,-2635.458349469049
9571.8,-2676.172635183335
9573.8,-2688.458349469049
9575.8,-2686.172635183335
9577.8,-2702.029778040477
9579.8,-2738.029778040478
9581.8,-2755.172635183335
9583.8,-2723.172635183335
9585.8,-2663.6012066119065
9587.8,-2624.8869208976203
9589.8,-2622.8869208976203
9591.8,-2624.4583494690487
9593.8,-2590.601206611906
9595.8,-2527.1726351833345
9597.8,-2484.7440637547634
9599.8,-2497.6012066119065
9601.78,-2533.8869208976207
9603.75,-2533.601206611906
9605.73,-2492.315492326192
9607.7,-2468.315492326192
9609.7,-2496.0297780404776
9611.7,-2532.029778040478
9613.7,-2517.172635183335
9615.7,-2459.029778040477
9617.7,-2415.315492326192
9619.7,-2414.8869208976207
9621.7,-2432.0297780404776
9623.7,-2433.0297780404776
9625.7,-2417.172635183335
9627.7,-2407.601206611906
9629.7,-2418.458349469049
9631.7,-2439.4583494690487
9633.7,-2446.3154923261923
9635.7,-2424.8869208976207
9637.7,-2387.7440637547634
9639.7,-2365.6012066119065
9641.7,-2374.029778040478
9643.7,-2395.3154923261923
9645.7,-2400.172635183335
9647.7,-2385.1726351833345
9649.7,-2375.458349469049
9651.7,-2389.6012066119065
9653.7,-2409.7440637547634
9655.7,-2398.0297780404776
9657.7,-2344.458349469049
9659.7,-2291.0297780404776
9661.7,-2285.172635183335
9663.7,-2314.172635183335
9665.7,-2319.315492326192
9667.7,-2284.315492326192
9669.7,-2260.458349469049
9671.7,-2285.315492326192
9673.7,-2324.601206611906
9675.7,-2324.8869208976203
9677.7,-2283.172635183335
9679.7,-2240.7440637547634
9681.68,-2230.7440637547634
9683.65,-2247.7440637547634
9685.63,-2258.0297780404776
9687.6,-2240.458349469049
9689.6,-2212.0297780404776
9691.6,-2203.172635183335
9693.6,-2213.0297780404776
9695.6,-2206.315492326192
9697.6,-2153.601206611906
9699.6,-2067.029778040478
9701.6,-1985.6012066119063
9703.6,-1930.315492326192
9705.6,-1887.7440637547636
9707.6,-1840.4583494690492
9709.6,-1790.4583494690492
9711.6,-1751.7440637547634
9713.6,-1738.8869208976205
9715.6,-1757.601206611906
9717.6,-1784.4583494690494
9719.6,-1777.6012066119065
9721.6,-1728.4583494690492
9723.6,-1678.315492326192
9725.6,-1662.315492326192
9727.6,-1661.7440637547634
9729.6,-1630.8869208976207
9731.6,-1561.4583494690492
9733.6,-1498.8869208976205
9735.6,-1487.7440637547634
9737.6,-1512.315492326192
9739.6,-1519.0297780404778
9741.6,-1491.4583494690492
9743.6,-1469.6012066119063
9745.6,-1486.172635183335
9747.6,-1519.172635183335
9749.6,-1522.0297780404778
9751.6,-1484.7440637547634
9753.6,-1441.0297780404776
9755.6,-1421.3154923261918
9757.6,-1418.0297780404776
9759.6,-1403.1726351833347
9761.58,-1364.4583494690492
9763.55,-1320.172635183335
9765.53,-1302.7440637547634
9767.5,-1321.6012066119063
9769.5,-1345.7440637547634
9771.5,-1344.6012066119063
9773.5,-1332.7440637547634
9775.5,-1340.1726351833347
9777.5,-1361.0297780404776
9779.5,-1371.3154923261918
9781.5,-1371.0297780404776
9783.5,-1371.7440637547634
9785.5,-1373.0297780404778
9787.5,-1379.7440637547636
9789.5,-1411.4583494690492
9791.5,-1469.315492326192
9793.5,-1521.7440637547634
9795.5,-1547.4583494690492
9797.5,-1563.601206611906
9799.5,-1587.7440637547636
9801.5,-1608.6012066119065
9803.5,-1617.6012066119063
9805.5,-1624.7440637547634
9807.5,-1627.6012066119063
9809.5,-1617.6012066119063
9811.5,-1616.7440637547634
9813.5,-1647.4583494690492
9815.5,-1681.0297780404778
9817.5,-1678.7440637547631
9819.5,-1659.0297780404776
9821.5,-1666.4583494690492
9823.5,-1700.172635183335
9825.5,-1723.6012066119063
9827.5,-1721.0297780404778
9829.5,-1710.6012066119063
9831.5,-1710.8869208976207
9833.5,-1722.6012066119063
9835.5,-1735.6012066119063
9837.5,-1736.8869208976205
9839.5,-1721.7440637547634
9841.48,-1712.3154923261918
9843.45,-1737.458349469049
9845.43,-1784.0297780404778
9847.4,-1803.8869208976203
9849.4,-1786.4583494690492
9851.4,-1776.4583494690492
9853.4,-1800.4583494690492
9855.4,-1824.3154923261918
9857.4,-1808.7440637547634
9859.4,-1767.0297780404776
9861.4,-1744.1726351833347
9863.4,-1759.3154923261918
9865.4,-1788.3154923261918
9867.4,-1797.7440637547634
9869.4,-1784.601206611906
9871.4,-1774.0297780404776
9873.4,-1783.7440637547631
9875.4,-1803.458349469049
9877.4,-1812.315492326192
9879.4,-1804.172635183335
9881.4,-1791.1726351833347
9883.4,-1789.3154923261918
9885.4,-1804.7440637547631
9887.4,-1826.7440637547631
9889.4,-1833.8869208976203
9891.4,-1816.1726351833347
9893.4,-1792.1726351833347
9895.4,-1791.0297780404776
9897.4,-1813.4583494690492
9899.4,-1828.0297780404778
9901.4,-1817.7440637547634
9903.4,-1807.8869208976205
9905.4,-1831.1726351833347
9907.4,-1880.3154923261918
9909.4,-1914.458349469049
9911.4,-1903.8869208976203
9913.4,-1863.601206611906
9915.4,-1837.172635183335
9917.4,-1844.1726351833347
9919.4,-1851.1726351833347
9921.38,-1818.3154923261918
9923.35,-1760.0297780404776
9925.33,-1729.601206611906
9927.3,-1741.8869208976205
9929.3,-1752.172635183335
9931.3,-1721.8869208976205
9933.3,-1669.6012066119063
9935.3,-1639.315492326192
9937.3,-1643.7440637547634
9939.3,-1659.315492326192
9941.3,-1661.0297780404778
9943.3,-1647.7440637547634
9945.3,-1640.3154923261923
9947.3,-1658.315492326192
9949.3,-1690.6012066119063
9951.3,-1704.3154923261918
9953.3,-1686.4583494690492
9955.3,-1661.4583494690492
9957.3,-1661.0297780404778
9959.3,-1688.0297780404778
9961.3,-1711.7440637547636
9963.3,-1700.0297780404778
9965.3,-1658.3154923261918
9967.3,-1631.4583494690492
9969.3,-1649.6012066119063
9971.3,-1684.0297780404776
9973.3,-1681.0297780404776
9975.3,-1640.458349469049
9977.3,-1624.0297780404776
9979.3,-1671.0297780404776
9981.3,-1738.1726351833347
9983.3,-1760.0297780404778
9985.3,-1738.8869208976205
9987.3,-1729.172635183335
9989.3,-1751.601206611906
9991.3,-1772.7440637547631
9993.3,-1761.601206611906
9995.3,-1725.8869208976205
9997.3,-1694.7440637547634
9999.3,-1687.7440637547636
10001.28,-1700.0297780404776
10003.25,-1705.0297780404776
10005.22,-1682.6012066119065
10007.2,-1649.172635183335
10009.2,-1640.458349469049
10011.2,-1656.4583494690492
10013.2,-1657.7440637547634
10015.2,-1622.0297780404776
10017.2,-1573.0297780404776
10019.2,-1543.601206611906
10021.2,-1537.7440637547631
10023.2,-1533.4583494690492
10025.2,-1508.3154923261918
10027.2,-1461.172635183335
10029.2,-1415.458349469049
10031.2,-1391.6012066119063
10033.2,-1378.0297780404778
10035.2,-1339.172635183335
10037.2,-1258.8869208976207
10039.2,-1171.0297780404776
10041.2,-1128.315492326192
10043.2,-1135.172635183335
10045.2,-1140.7440637547634
10047.2,-1115.3154923261918
10049.2,-1097.4583494690492
10051.2,-1138.315492326192
10053.2,-1225.6012066119063
10055.2,-1296.6012066119063
10057.2,-1318.4583494690492
10059.2,-1327.4583494690492
10061.2,-1374.4583494690492
10063.2,-1449.8869208976205
10065.2,-1493.7440637547634
10067.2,-1478.315492326192
10069.2,-1441.458349469049
10071.2,-1427.6012066119063
10073.2,-1434.7440637547636
10075.2,-1433.8869208976205
10077.2,-1413.315492326192
10079.2,-1389.7440637547634
10081.17,-1389.172635183335
10083.15,-1421.4583494690492
10085.13,-1468.7440637547634
10087.1,-1499.172635183335
10089.1,-1496.8869208976205
10091.1,-1477.6012066119063
10093.1,-1471.7440637547634
10095.1,-1489.3154923261918
10097.1,-1503.0297780404776
10099.1,-1482.8869208976205
10101.1,-1444.6012066119065
10103.1,-1437.172635183335
10105.1,-1477.6012066119063
10107.1,-1527.458349469049
10109.1,-1543.3154923261918
10111.1,-1531.0297780404776
10113.1,-1534.0297780404778
10115.1,-1575.7440637547636
10117.1,-1627.4583494690492
10119.1,-1643.7440637547636
10121.1,-1617.0297780404778
10123.1,-1573.7440637547634
10125.1,-1520.3154923261918
10127.1,-1419.4583494690492
10129.1,-1224.172635183335
10131.1,-922.8869208976206
10133.1,-549.4583494690493
10135.1,-152.31549232619207
10137.1,243.6845076738079
10139.1,637.6845076738078
10141.1,1010.9702219595222
10143.1,1299.2559362452364
10145.1,1425.6845076738077
10147.1,1362.5416505309508
10149.1,1148.827364816665
10151.1,839.827364816665
10153.1,452.9702219595222
10155.1,-12.172635183334904
10157.1,-506.6012066119064
10159.1,-929.1726351833348
10161.08,-1209.8869208976207
10163.05,-1363.4583494690492
10165.03,-1441.7440637547634
10167.0,-1470.172635183335
10169.0,-1447.3154923261918
10171.0,-1377.0297780404778
10173.0,-1280.8869208976205
10175.0,-1195.1726351833347
10177.0,-1153.7440637547636
10179.0,-1152.315492326192
10181.0,-1144.7440637547636
10183.0,-1105.1726351833347
10185.0,-1070.315492326192
10187.0,-1085.6012066119063
10189.0,-1133.0297780404776
10191.0,-1152.8869208976205
10193.0,-1127.315492326192
10195.0,-1097.7440637547634
10197.0,-1099.4583494690494
10199.0,-1119.7440637547636
10201.0,-1129.0297780404778
10203.0,-1118.4583494690492
10205.0,-1100.8869208976205
10207.0,-1094.0297780404776
10209.0,-1105.172635183335
10211.0,-1118.6012066119065
10213.0,-1107.8869208976207
10215.0,-1071.4583494690492
10217.0,-1040.8869208976205
10219.0,-1042.315492326192
10221.0,-1067.0297780404776
10223.0,-1085.3154923261918
10225.0,-1078.8869208976205
10227.0,-1060.6012066119063
10229.0,-1059.6012066119065
10231.0,-1081.0297780404778
10233.0,-1090.3154923261918
10235.0,-1053.0297780404778
10237.0,-980.315492326192
10239.0,-919.1726351833349
10240.97,-898.4583494690492
10242.95,-897.1726351833349
10244.92,-872.315492326192
10246.9,-818.8869208976206
10248.9,-782.8869208976206
10250.9,-799.1726351833349
10252.9,-835.8869208976206
10254.9,-833.0297780404776
10256.9,-784.8869208976205
10258.9,-743.4583494690492
10260.9,-742.8869208976207
10262.9,-762.315492326192
10264.9,-763.3154923261919
10266.9,-732.1726351833348
10268.9,-689.7440637547634
10270.9,-672.8869208976205
10272.9,-688.6012066119062
10274.9,-695.4583494690493
10276.9,-663.315492326192
10278.9,-625.7440637547635
10280.9,-626.1726351833349
10282.9,-652.458349469049
10284.9,-670.0297780404778
10286.9,-673.0297780404777
10288.9,-664.0297780404778
10290.9,-633.6012066119063
10292.9,-590.7440637547634
10294.9,-568.4583494690492
10296.9,-571.8869208976207
10298.9,-563.315492326192
10300.9,-524.4583494690492
10302.9,-493.0297780404778
10304.9,-499.17263518333493
10306.9,-512.7440637547635
10308.9,-497.02977804047777
10310.9,-462.7440637547635
10312.9,-430.6012066119064
10314.9,-399.1726351833349
10316.9,-370.8869208976206
10318.9,-351.6012066119064
10320.88,-323.7440637547635
10322.85,-276.6012066119063
10324.83,-241.88692089762063
10326.8,-245.74406375476352
10328.8,-260.4583494690492
10330.8,-246.17263518333493
10332.8,-208.60120661190635
10334.8,-180.45834946904924
10336.8,-172.0297780404778
10338.8,-162.88692089762066
10340.8,-130.74406375476352
10342.8,-72.60120661190636
10344.8,-7.315492326192079
10346.8,38.970221959522206
10348.8,58.970221959522206
10350.8,75.9702219595222
10352.8,114.68450767380791
10354.8,166.68450767380793
10356.8,199.82736481666507
10358.8,200.54165053095076
10360.8,190.54165053095076
10362.8,201.39879338809362
10364.8,237.6845076738079
10366.8,270.3987933880936
10368.8,270.9702219595222
10370.8,249.82736481666504
10372.8,243.9702219595222
10374.8,267.2559362452365
10376.8,289.54165053095073
10378.8,276.82736481666507
10380.8,237.6845076738079
10382.8,215.54165053095076
10384.8,231.5416505309508
10386.8,255.97022195952218
10388.8,248.54165053095076
10390.8,213.82736481666507
10392.8,189.68450767380793
10394.8,195.39879338809362
10396.8,213.39879338809362
10398.8,216.5416505309508
10400.78,194.82736481666507
10402.75,162.11307910237934
10404.72,142.6845076738079
10406.7,143.25593624523648
10408.7,141.11307910237934
10410.7,109.39879338809364
10412.7,51.68450767380793
10414.7,3.5416505309507826
10416.7,-5.601206611906359
10418.7,7.113079102379353
10420.7,-6.172635183334931
10422.7,-58.88692089762064
10424.7,-107.60120661190635
10426.7,-114.60120661190636
10428.7,-103.17263518333493
10430.7,-121.31549232619207
10432.7,-176.4583494690492
10434.7,-229.4583494690492
10436.7,-246.7440637547635
10438.7,-241.60120661190638
10440.7,-258.02977804047777
10442.7,-314.02977804047777
10444.7,-377.4583494690492
10446.7,-405.6012066119064
10448.7,-394.6012066119063
10450.7,-374.8869208976206
10452.7,-370.1726351833349
10454.7,-372.7440637547635
10456.7,-355.3154923261921
10458.7,-306.6012066119063
10460.7,-254.02977804047777
10462.7,-235.60120661190632
10464.7,-252.1726351833349
10466.7,-266.8869208976206
10468.7,-252.7440637547635
10470.7,-222.0297780404778
10472.7,-207.02977804047777
10474.7,-221.17263518333493
10476.7,-243.17263518333493
10478.7,-239.60120661190635
10480.67,-208.02977804047777
10482.65,-187.1726351833349
10484.63,-209.4583494690492
10486.6,-253.7440637547635
10488.6,-266.7440637547635
10490.6,-233.45834946904924
10492.6,-200.60120661190635
10494.6,-211.4583494690492
10496.6,-243.60120661190632
10498.6,-245.31549232619204
10500.6,-215.88692089762063
10502.6,-206.45834946904918
10504.6,-243.17263518333493
10506.6,-292.4583494690492
10508.6,-312.7440637547635
10510.6,-302.88692089762066
10512.6,-288.8869208976206
10514.6,-287.6012066119064
10516.6,-294.31549232619204
10518.6,-291.7440637547635
10520.6,-270.3154923261921
10522.6,-243.0297780404778
10524.6,-234.45834946904918
10526.6,-250.02977804047777
10528.6,-268.02977804047777
10530.6,-262.7440637547635
10532.6,-235.7440637547635
10534.6,-217.60120661190635
10536.6,-230.7440637547635
10538.6,-257.88692089762066
10540.6,-266.8869208976206
10542.6,-255.31549232619204
10544.6,-249.17263518333488
10546.6,-263.4583494690492
10548.6,-285.0297780404777
10550.6,-288.8869208976206
10552.6,-261.7440637547635
10554.6,-221.17263518333493
10556.6,-207.3154923261921
10558.6,-233.74406375476352
10560.58,-258.31549232619204
10562.55,-233.17263518333493
10564.53,-174.60120661190638
10566.5,-144.4583494690492
10568.5,-162.17263518333493
10570.5,-175.31549232619207
10572.5,-137.17263518333493
10574.5,-79.31549232619207
10576.5,-69.88692089762066
10578.5,-118.74406375476349
10580.5,-169.88692089762063
10582.5,-181.31549232619207
10584.5,-169.60120661190635
10586.5,-170.60120661190635
10588.5,-191.88692089762063
10590.5,-212.88692089762063
10592.5,-210.88692089762063
10594.5,-184.0297780404778
10596.5,-156.4583494690492
10598.5,-154.0297780404778
10600.5,-175.60120661190635
10602.5,-196.4583494690492
10604.5,-200.45834946904918
10606.5,-200.02977804047777
10608.5,-219.1726351833349
10610.5,-258.7440637547635
10612.5,-288.6012066119063
10614.5,-281.31549232619204
10616.5,-246.74406375476346
10618.5,-222.02977804047777
10620.5,-228.31549232619207
10622.5,-248.4583494690492
10624.5,-249.4583494690492
10626.5,-224.60120661190638
10628.5,-206.02977804047777
10630.5,-224.45834946904918
10632.5,-259.7440637547635
10634.5,-259.6012066119064
10636.5,-213.1726351833349
10638.5,-173.7440637547635
10640.47,-188.31549232619204
10642.45,-233.31549232619204
10644.42,-248.31549232619207
10646.4,-216.17263518333493
10648.4,-178.31549232619207
10650.4,-172.17263518333493
10652.4,-181.88692089762066
10654.4,-166.7440637547635
10656.4,-120.0297780404778
10658.4,-76.0297780404778
10660.4,-65.45834946904921
10662.4,-83.17263518333493
10664.4,-95.31549232619207
10666.4,-70.31549232619207
10668.4,-9.315492326192079
10670.4,50.82736481666507
10672.4,79.54165053095078
10674.4,90.82736481666507
10676.4,121.11307910237936
10678.4,174.25593624523648
10680.4,213.82736481666507
10682.4,209.11307910237932
10684.4,175.6845076738079
10686.4,156.9702219595222
10688.4,168.68450767380793
10690.4,176.39879338809362
10692.4,143.39879338809365
10694.4,85.54165053095079
10696.4,52.255936245236484
10698.4,60.2559362452365
10700.4,77.11307910237934
10702.4,69.54165053095078
10704.4,41.54165053095078
10706.4,21.255936245236498
10708.4,25.398793388093647
10710.4,40.2559362452365
10712.4,35.68450767380792
10714.4,0.9702219595222079
10716.4,-41.88692089762064
10718.4,-67.31549232619207
10720.38,-79.0297780404778
10722.35,-102.31549232619207
10724.33,-146.74406375476352
10726.3,-189.74406375476352
10728.3,-202.45834946904924
10730.3,-183.60120661190638
10732.3,-157.88692089762066
10734.3,-148.88692089762063
10736.3,-159.60120661190635
10738.3,-173.31549232619207
10740.3,-174.60120661190635
10742.3,-175.7440637547635
10744.3,-208.88692089762066
10746.3,-280.31549232619204
10748.3,-353.1726351833349
10750.3,-390.31549232619204
10752.3,-399.4583494690492
10754.3,-417.315492326192
10756.3,-453.74406375476343
10758.3,-464.0297780404777
10760.3,-387.74406375476343
10762.3,-209.17263518333493
10764.3,33.113079102379345
10766.3,299.3987933880936
10768.3,595.9702219595222
10770.3,955.827364816665
10772.3,1372.827364816665
10774.3,1780.3987933880937
10776.3,2103.3987933880935
10778.3,2309.1130791023793
10780.3,2399.1130791023793
10782.3,2375.255936245236
10784.3,2219.970221959522
10786.3,1905.2559362452364
10788.3,1443.6845076738077
10790.3,930.2559362452363
10792.3,477.54165053095096
10794.3,122.3987933880936
10796.3,-146.02977804047782
10798.3,-310.02977804047777
10800.28,-350.4583494690492
10802.25,-301.74406375476354
10804.22,-216.88692089762066
10806.2,-119.17263518333492
10808.2,-28.31549232619208
10810.2,20.255936245236498
10812.2,14.398793388093637
10814.2,-8.74406375476351
10816.2,-9.172635183334936
10818.2,5.684507673807925
10820.2,4.113079102379351
10822.2,-14.315492326192071
10824.2,-25.17263518333493
10826.2,-22.17263518333493
10828.2,-16.31549232619207
10830.2,-14.744063754763502
10832.2,-27.029778040477787
10834.2,-56.029778040477794
10836.2,-76.31549232619207
10838.2,-67.74406375476352
10840.2,-56.17263518333493
10842.2,-73.7440637547635
10844.2,-102.74406375476349
10846.2,-105.17263518333492
10848.2,-81.88692089762063
10850.2,-63.45834946904921
10852.2,-63.31549232619208
10854.2,-68.88692089762066
10856.2,-63.60120661190635
10858.2,-40.31549232619207
10860.2,-8.172635183334933
10862.2,9.541650530950783
10864.2,0.39879338809363674
10866.2,-13.601206611906363
10868.2,2.541650530950781
10870.2,49.11307910237935
10872.2,84.25593624523648
10874.2,74.68450767380793
10876.2,39.68450767380792
10878.2,27.398793388093637
10880.17,47.97022195952221
10882.15,58.82736481666507
10884.13,29.25593624523649
10886.1,-10.458349469049217
10888.1,-12.601206611906361
10890.1,23.827364816665064
10892.1,63.684507673807914
10894.1,86.11307910237934
10896.1,96.68450767380793
10898.1,111.54165053095076
10900.1,141.11307910237934
10902.1,177.6845076738079
10904.1,197.82736481666507
10906.1,187.97022195952223
10908.1,164.68450767380796
10910.1,160.5416505309508
10912.1,184.97022195952218
10914.1,208.82736481666507
10916.1,199.82736481666507
10918.1,169.9702219595222
10920.1,160.82736481666507
10922.1,185.2559362452365
10924.1,211.97022195952223
10926.1,210.54165053095076
10928.1,189.25593624523648
10930.1,184.39879338809362
10932.1,217.39879338809362
10934.1,265.82736481666507
10936.1,287.5416505309508
10938.1,278.827364816665
10940.1,284.3987933880936
10942.1,336.25593624523646
10944.1,406.9702219595222
10946.1,445.39879338809357
10948.1,443.1130791023793
10950.1,440.6845076738079
10952.1,471.9702219595222
10954.1,524.8273648166651
10956.1,559.3987933880936
10958.1,555.3987933880936
10960.08,534.6845076738078
10962.05,535.3987933880936
10964.03,564.827364816665
10966.0,589.3987933880936
10968.0,577.5416505309507
10970.0,543.684507673808
10972.0,532.5416505309508
10974.0,562.1130791023793
10976.0,601.2559362452364
10978.0,612.8273648166651
10980.0,602.6845076738078
10982.0,608.2559362452364
10984.0,649.2559362452365
10986.0,705.5416505309508
10988.0,741.3987933880935
10990.0,745.2559362452365
10992.0,744.5416505309507
10994.0,773.8273648166651
10996.0,828.5416505309507
10998.0,865.8273648166651
11000.0,861.1130791023794
11002.0,842.6845076738078
11004.0,856.9702219595222
11006.0,910.1130791023792
11008.0,957.9702219595221
11010.0,958.1130791023793
11012.0,925.1130791023793
11014.0,915.1130791023793
11016.0,949.9702219595222
11018.0,982.684507673808
11020.0,963.6845076738078
11022.0,912.6845076738078
11024.0,889.8273648166648
11026.0,912.9702219595222
11028.0,940.827364816665
11030.0,932.8273648166651
11032.0,897.5416505309507
11034.0,872.9702219595222
11036.0,875.3987933880935
11038.0,880.5416505309507
11039.97,854.3987933880936
11041.95,795.1130791023793
11043.92,735.5416505309508
11045.9,708.1130791023793
11047.9,710.5416505309507
11049.9,708.8273648166651
11051.9,675.9702219595222
11053.9,626.1130791023793
11055.9,596.8273648166651
